time,e1,e2,e3,e4,e5,e6,e7,e8
0.736,294,645,162,942,327,562,607,535
0.759,274,429,145,1049,268,475,510,453
0.781,253,391,147,1071,233,386,436,383
0.796,250,374,141,1100,210,309,359,314
0.819,226,369,145,1064,238,224,292,236
0.842,194,326,140,1129,242,154,249,189
0.856,171,271,141,1115,245,137,240,178
0.879,162,234,172,992,244,126,264,181
0.901,335,319,603,864,277,184,238,243
0.916,466,408,955,1038,260,303,249,282
0.939,604,482,1088,1019,266,345,307,407
0.961,621,518,1185,999,260,342,344,536
0.976,632,521,1348,995,256,354,373,629
0.999,559,464,1299,1019,206,336,375,740
1.021,462,381,1082,851,149,233,347,855
1.043,270,271,950,747,104,151,294,861
1.059,258,252,888,731,107,160,244,842
1.081,224,256,695,771,101,154,162,924
1.104,192,251,659,1090,111,144,142,1257
1.119,172,244,745,1325,115,138,134,1423
1.149,148,237,816,1574,105,143,136,1575
1.164,73,173,781,1700,102,124,143,1677
1.179,65,160,712,1723,104,89,153,1656
1.201,69,179,613,1516,84,77,200,1383
1.224,73,179,480,1295,82,73,291,1145
1.239,68,187,349,977,90,81,328,895
1.261,81,174,279,669,89,85,366,696
1.284,81,171,264,492,85,91,424,679
1.299,95,133,234,436,87,96,446,731
1.321,97,128,464,582,90,103,447,740
1.352,100,112,711,716,79,113,448,844
1.359,106,113,850,914,83,116,605,887
1.381,115,108,1094,1135,81,120,604,855
1.405,99,105,1245,1334,83,120,616,803
1.427,99,99,1393,1507,69,121,640,803
1.441,155,125,1434,1615,67,102,692,756
1.464,154,143,1435,1584,57,97,558,726
1.487,153,147,1291,1452,59,87,542,736
1.501,309,229,1155,1280,50,85,510,762
1.525,549,615,1310,1090,83,125,464,832
1.539,571,631,1362,808,105,191,398,766
1.561,588,636,1483,659,107,196,378,684
1.584,604,643,1634,627,109,215,334,605
1.599,545,621,1730,615,111,217,309,531
1.629,344,251,1473,376,90,197,254,378
1.644,347,289,1284,325,65,136,160,353
1.667,462,418,1072,422,69,179,155,389
1.689,462,436,813,430,71,180,144,458
1.704,748,723,808,499,113,218,146,661
1.727,840,832,861,669,181,369,227,700
1.75,827,864,937,749,205,452,228,734
1.763,776,849,1038,721,206,442,215,739
1.786,765,854,1049,728,208,437,231,749
1.81,492,708,893,688,189,418,235,763
1.832,272,870,774,525,134,297,268,824
1.847,243,1024,666,640,97,152,441,923
1.87,180,1156,428,797,91,131,588,1027
1.884,177,1280,311,936,90,122,688,1151
1.907,165,1309,230,1025,99,152,741,1161
1.929,163,1196,213,1119,100,179,746,1197
1.944,149,1148,183,1021,104,197,696,1184
1.967,131,1048,148,902,112,196,670,1119
1.99,126,998,133,1053,296,344,748,1028
2.012,113,1090,124,1099,670,574,801,945
2.027,105,1216,160,1279,861,657,845,872
2.05,98,1253,163,1557,976,770,953,874
2.08,100,1447,165,1707,1123,784,981,1044
2.089,93,1518,427,1573,1216,851,1064,1049
2.117,90,1504,646,1496,1146,969,1120,1016
2.124,66,1390,796,1274,1094,995,1306,958
2.147,61,1281,875,910,1075,991,1361,858
2.161,49,1034,936,835,960,1033,1389,572
2.185,46,866,929,816,832,963,1469,384
2.207,49,711,1084,854,755,739,1529,284
2.221,49,664,1062,885,697,654,1458,232
2.245,50,812,1175,964,841,516,1369,167
2.275,57,984,1447,785,999,636,1306,99
2.289,67,1076,1581,883,1149,671,1057,177
2.305,70,1184,1505,1037,1342,655,830,757
2.327,73,1296,1555,1115,1414,666,759,1111
2.341,87,1337,1511,1209,1399,673,854,1332
2.365,83,1198,1257,1301,1406,481,1063,1438
2.387,92,1088,1102,1262,1339,378,1154,1452
2.401,90,1094,1081,1294,1196,354,1212,1257
2.432,95,1081,1046,1386,1162,282,1267,1202
2.447,92,1004,1053,1350,1138,258,1316,1222
2.461,171,1059,1085,1326,1030,222,1191,1187
2.485,172,1103,1099,1290,998,230,1133,1317
2.507,179,972,1012,1122,930,245,1074,1392
2.521,180,827,901,946,902,296,911,1267
2.544,180,662,766,790,749,420,680,1040
2.567,114,570,665,592,677,526,563,1029
2.581,99,425,512,562,579,580,472,1038
2.605,89,341,454,525,538,624,458,997
2.627,85,303,428,594,374,638,406,925
2.641,76,294,388,670,335,592,340,912
2.672,69,208,338,743,331,517,307,839
2.687,69,172,291,755,370,455,261,613
2.701,63,153,250,742,375,370,195,537
2.725,58,123,193,593,372,282,140,512
2.747,49,114,185,483,348,228,122,474
2.761,51,99,181,344,281,183,137,417
2.784,50,97,185,237,197,169,134,313
2.815,49,93,183,154,125,161,132,245
2.821,49,98,199,133,102,162,130,203
2.845,52,97,206,99,103,159,131,203
2.876,51,101,196,99,99,154,96,199
2.891,49,99,196,84,103,145,91,184
2.905,47,99,195,76,104,142,92,175
2.927,45,94,183,74,104,136,90,148
2.951,44,86,166,71,97,125,84,140
2.971,43,83,170,69,91,122,77,140
2.988,46,84,158,66,82,117,74,139
3.009,48,82,155,59,78,111,67,133
3.026,45,89,160,49,76,110,66,132
3.048,44,88,161,47,74,114,68,117
3.069,45,82,158,45,77,114,67,100
3.086,43,81,160,48,81,112,70,87
3.108,40,81,150,49,82,107,72,121
3.129,43,74,140,53,85,101,78,129
3.151,45,75,130,57,90,90,76,134
3.168,41,73,111,70,103,86,77,131
3.189,40,71,105,74,115,86,74,192
3.211,42,70,114,89,140,105,87,172
3.234,41,79,118,89,152,114,83,170
3.251,37,83,141,90,178,132,100,189
3.271,39,88,145,85,188,135,103,207
3.294,37,91,158,82,197,145,111,156
3.311,33,90,153,68,194,133,102,180
3.333,39,81,152,64,188,125,104,189
3.356,44,73,137,60,165,110,90,185
3.369,47,70,137,60,145,107,87,177
3.391,49,66,129,59,123,98,80,174
3.414,49,65,133,61,110,99,76,149
3.436,48,73,132,65,106,102,76,138
3.451,44,79,147,84,127,118,83,140
3.474,40,160,148,84,150,119,89,134
3.491,40,259,151,95,187,124,143,180
3.511,42,285,148,101,209,125,168,252
3.534,39,304,152,107,232,129,171,263
3.551,45,308,137,99,239,114,169,264
3.571,48,276,138,103,240,110,165,270
3.594,49,205,133,106,226,99,120,243
3.609,52,191,143,97,222,97,139,202
3.631,51,173,156,103,203,94,160,202
3.654,47,186,199,111,200,102,164,184
3.669,49,202,221,119,200,104,167,179
3.691,49,191,223,117,194,108,174,217
3.716,45,175,227,131,204,116,136,218
3.736,47,162,222,125,206,115,111,212
3.751,48,136,185,115,195,109,117,219
3.774,48,113,160,104,182,105,133,219
3.789,52,103,159,93,183,105,134,187
3.811,53,92,146,73,149,96,134,154
3.834,52,84,137,62,134,92,134,151
3.85,52,82,138,54,120,88,126,138
3.872,50,71,135,70,110,92,107,132
3.893,44,69,132,79,95,91,96,121
3.908,42,65,131,93,88,89,97,119
3.931,42,73,132,101,94,93,88,111
3.954,43,81,129,102,93,96,83,117
3.968,42,88,127,97,89,98,79,117
3.991,41,87,128,89,84,100,80,115
4.015,43,89,125,81,90,99,73,107
4.028,41,92,123,68,97,99,73,98
4.058,39,93,120,66,113,103,69,98
4.073,39,91,110,54,126,100,71,99
4.088,38,96,94,55,135,94,69,98
4.111,40,114,86,47,138,96,67,107
4.142,44,110,75,51,131,92,66,109
4.149,45,103,70,54,124,80,67,104
4.171,44,99,68,61,120,77,70,103
4.194,45,91,74,60,114,77,69,113
4.209,41,62,90,61,115,77,72,113
4.231,38,54,104,61,116,79,82,131
4.254,35,55,112,55,115,85,80,135
4.269,36,63,119,45,114,89,81,137
4.291,37,68,121,41,114,93,83,135
4.313,38,64,114,38,103,98,87,131
4.336,38,67,107,37,98,102,78,115
4.351,37,76,104,38,92,103,81,111
4.374,36,71,107,40,88,102,79,102
4.396,39,68,111,42,94,103,76,96
4.411,39,68,130,42,103,100,72,96
4.434,44,76,141,40,120,101,84,104
4.456,45,73,154,39,132,109,90,117
4.472,45,81,160,39,135,112,91,130
4.493,48,85,162,39,137,114,99,136
4.516,50,97,157,38,139,119,106,147
4.531,44,98,149,42,127,119,99,146
4.554,45,94,135,43,116,115,92,142
4.576,45,88,120,43,106,110,87,132
4.591,36,83,108,42,93,104,78,127
4.613,36,70,89,41,79,97,69,112
4.636,37,63,80,36,74,91,70,109
4.651,41,63,72,42,67,87,70,101
4.674,43,66,79,40,70,88,76,104
4.696,45,70,86,41,75,90,79,105
4.711,46,73,94,42,79,86,76,103
4.734,49,73,102,44,83,85,79,98
4.757,47,72,103,41,90,88,75,97
4.771,47,72,109,44,91,86,78,95
4.795,48,73,117,43,98,89,76,94
4.816,46,73,120,41,95,89,77,94
4.831,41,74,122,42,94,92,73,91
4.853,41,73,123,40,92,88,82,90
4.876,40,77,113,39,89,90,77,84
4.891,37,76,101,37,79,87,78,79
4.916,37,76,97,38,76,91,78,78
4.936,42,74,95,48,69,90,81,80
4.96,42,74,102,57,60,93,76,83
4.973,43,70,108,60,59,96,78,93
4.996,45,68,114,63,55,95,78,101
5.012,47,66,114,63,53,90,82,106
5.033,44,72,107,58,57,95,82,122
5.064,46,73,100,54,58,97,86,133
5.071,48,68,92,54,63,98,84,134
5.102,49,70,85,53,64,104,86,136
5.116,48,71,83,57,66,110,80,132
5.139,50,68,87,53,66,110,89,117
5.154,47,70,98,48,72,102,83,105
5.176,44,68,107,43,73,102,83,93
5.199,40,72,111,42,78,94,78,84
5.214,37,69,109,34,74,89,77,86
5.236,32,67,108,31,74,86,66,83
5.252,36,70,102,30,69,85,67,83
5.274,35,70,98,27,64,82,72,89
5.296,44,65,98,26,58,88,76,91
5.319,47,69,106,30,68,94,81,91
5.342,48,77,123,34,70,104,91,103
5.356,49,88,139,38,82,110,94,110
5.379,49,101,150,39,93,117,91,118
5.393,47,108,156,40,99,124,92,127
5.416,51,112,162,37,103,126,92,134
5.447,53,107,153,36,104,123,84,131
5.454,54,95,135,33,101,123,81,129
5.476,53,80,116,33,90,112,75,121
5.499,50,72,100,34,81,102,74,113
5.514,43,63,77,37,70,92,68,104
5.536,43,60,68,40,68,86,67,103
5.56,42,64,74,46,61,90,68,95
5.574,40,65,81,47,61,91,73,97
5.596,40,75,97,48,65,96,72,100
5.62,43,81,112,52,65,98,74,100
5.642,39,91,133,48,68,98,79,96
5.656,40,101,147,51,69,99,79,101
5.695,45,106,158,53,78,108,81,108
5.702,49,103,172,51,80,115,91,114
5.724,48,109,176,48,88,129,102,120
5.739,51,107,170,52,90,137,106,134
5.754,48,102,164,46,95,141,110,139
5.776,45,101,159,43,92,140,111,139
5.8,43,102,147,42,94,135,105,137
5.814,41,100,140,39,95,128,102,140
5.844,37,99,134,34,94,126,97,131
5.859,42,92,128,38,92,116,94,132
5.874,44,93,116,37,90,112,94,125
5.896,43,90,98,39,92,103,98,117
5.92,46,79,82,40,88,95,92,109
5.933,47,73,67,43,85,82,86,104
5.956,47,72,71,42,87,81,84,90
5.98,45,72,76,43,85,82,82,89
6.002,46,71,86,45,80,93,77,92
6.016,46,83,104,45,75,95,76,91
6.04,48,88,114,43,77,100,79,92
6.07,49,89,121,39,78,107,81,102
6.076,49,88,129,40,78,107,80,103
6.1,44,88,133,36,82,106,80,104
6.113,44,81,128,34,85,106,81,103
6.144,43,80,142,32,87,107,80,106
6.16,41,80,143,33,83,111,88,104
6.174,39,81,141,32,85,111,87,107
6.196,45,84,144,29,87,109,86,109
6.22,42,85,148,31,85,112,90,112
6.242,42,85,133,37,89,108,87,113
6.256,42,86,124,40,89,107,82,112
6.28,49,87,119,42,94,105,84,115
6.302,46,85,108,43,87,107,84,112
6.316,46,87,105,44,88,107,83,112
6.347,45,84,99,41,77,108,81,113
6.362,44,80,94,41,79,102,76,113
6.376,42,81,89,39,78,106,79,108
6.399,40,84,85,38,88,101,84,107
6.423,40,82,72,37,89,92,81,103
6.452,39,82,80,36,95,89,90,97
6.46,44,84,89,33,99,86,89,92
6.482,40,85,101,35,91,82,83,87
6.496,43,88,116,34,85,83,81,85
6.52,44,89,130,35,89,93,86,90
6.542,46,96,137,39,91,102,83,92
6.556,43,101,154,39,91,111,102,88
6.579,47,98,158,39,95,113,106,84
6.601,49,101,158,44,97,116,110,80
6.624,55,105,157,43,96,114,109,73
6.639,57,102,157,41,88,114,109,64
6.662,57,101,147,42,80,115,99,78
6.676,55,103,152,42,88,119,103,98
6.699,57,96,145,40,84,116,97,101
6.73,52,87,145,38,81,115,94,104
6.736,54,80,136,39,81,109,88,107
6.759,57,68,128,40,81,98,79,101
6.782,56,61,108,38,69,93,64,93
6.804,50,57,103,38,69,97,56,96
6.82,52,58,92,39,69,98,62,101
6.842,51,73,91,39,71,106,68,104
6.856,47,84,105,38,75,113,73,106
6.88,46,88,110,40,77,111,81,104
6.909,45,88,117,39,81,107,85,103
6.916,44,89,125,41,80,107,82,100
