time,e1,e2,e3,e4,e5,e6,e7,e8
0.127,66,89,119,99,50,57,162,116
0.157,70,92,128,99,52,61,156,121
0.171,70,89,116,90,55,54,158,121
0.186,75,73,130,96,52,47,200,113
0.209,71,68,128,90,47,47,201,111
0.241,94,71,119,90,50,46,208,128
0.249,100,67,103,93,53,47,234,135
0.285,98,68,116,96,52,51,237,136
0.292,100,65,101,87,56,55,203,159
0.307,102,69,105,100,62,59,220,155
0.329,84,70,109,101,57,59,208,141
0.361,78,71,115,105,56,55,158,141
0.369,77,66,106,101,51,52,158,141
0.398,63,75,135,128,54,44,149,104
0.412,56,74,134,121,49,36,127,108
0.442,62,78,139,130,52,38,129,109
0.45,66,75,134,123,49,34,128,97
0.489,63,86,136,121,55,36,118,93
0.497,75,92,112,105,59,35,109,104
0.525,88,105,122,128,67,34,100,101
0.532,83,108,140,132,66,32,97,106
0.563,84,119,154,146,69,34,82,106
0.577,96,114,154,154,68,37,80,121
0.609,88,104,145,147,57,36,85,108
0.611,86,102,140,128,55,39,83,146
0.644,88,107,134,148,62,44,140,163
0.66,83,97,120,135,61,44,148,159
0.683,78,102,125,131,61,41,164,169
0.689,79,106,128,126,59,41,177,174
0.721,77,103,128,129,52,39,174,146
0.735,82,89,111,86,44,32,138,149
0.765,86,90,108,97,47,33,131,150
0.771,82,84,109,115,44,40,147,136
0.802,81,78,113,121,49,45,143,148
0.811,79,78,114,118,54,49,144,145
0.841,75,84,129,131,57,52,154,123
0.856,77,86,149,137,56,53,156,128
0.881,74,90,152,128,65,52,125,130
0.925,81,93,158,139,63,50,110,111
0.927,85,82,152,141,61,51,171,128
0.961,83,75,137,128,57,48,167,122
0.969,86,77,131,119,55,47,162,120
0.999,89,88,127,109,49,45,160,109
1.012,85,98,127,96,50,48,208,114
1.043,81,99,133,96,53,48,166,101
1.044,81,99,133,93,53,48,154,106
1.083,70,96,118,91,61,50,168,106
1.119,64,97,117,106,62,56,180,114
1.121,62,87,111,105,66,51,119,113
1.124,56,98,121,116,64,47,123,103
1.132,57,104,140,136,64,48,132,98
1.164,73,103,139,130,58,58,126,94
1.201,78,128,148,146,67,56,116,81
1.204,78,135,150,151,63,56,113,79
1.215,87,135,145,157,69,58,104,108
1.239,90,135,124,161,79,62,114,117
1.276,78,140,137,184,95,54,108,115
1.278,92,114,138,189,90,53,105,165
1.321,99,122,135,191,92,63,119,166
1.326,91,119,123,187,97,75,125,149
1.356,83,118,128,170,89,75,106,140
1.387,86,120,141,165,71,72,100,139
1.404,85,116,122,139,67,68,105,101
1.434,76,98,120,145,64,62,92,97
1.478,74,85,120,130,48,48,78,94
1.484,77,80,115,130,48,45,80,94
1.508,78,111,83,132,49,48,88,111
1.531,56,111,99,136,57,49,101,92
1.559,53,111,125,118,57,49,109,87
1.593,106,125,152,124,57,51,162,103
1.612,162,153,161,147,64,65,182,128
1.628,240,150,188,143,69,71,180,112
1.63,245,151,183,135,67,82,175,113
1.635,347,178,209,178,73,85,188,129
1.636,341,174,209,189,85,96,189,134
1.649,325,150,202,175,86,91,178,118
1.658,286,129,182,189,96,97,183,157
1.68,284,124,181,220,143,96,203,157
1.694,149,75,125,197,156,99,193,145
1.718,144,70,91,197,159,100,155,157
1.74,142,74,94,211,174,130,162,184
1.754,118,89,82,193,173,251,172,167
1.778,111,100,72,153,137,279,149,176
1.8,117,102,70,143,122,298,162,181
1.814,112,108,67,144,122,299,169,170
1.838,98,108,72,133,107,292,161,140
1.86,110,93,68,122,96,258,151,148
1.874,127,81,68,123,99,237,151,160
1.898,128,79,65,119,105,301,165,164
1.92,123,68,69,103,91,325,164,153
1.934,118,57,58,99,96,331,170,151
1.957,101,53,56,101,99,296,180,134
1.98,90,69,57,103,96,295,181,125
1.994,95,85,57,101,90,214,149,114
2.025,94,132,76,104,89,167,146,121
2.039,98,141,85,100,93,153,130,119
2.062,112,143,89,106,95,135,106,114
2.078,108,138,90,108,93,142,110,103
2.108,104,134,95,111,99,134,138,116
2.123,115,121,117,138,146,292,160,111
2.146,151,150,134,152,147,308,177,112
2.16,243,176,137,151,149,320,183,126
2.182,272,230,142,157,153,341,200,159
2.198,298,230,141,155,151,365,197,156
2.228,307,239,125,158,138,299,187,158
2.243,307,233,132,172,132,284,180,161
2.266,288,219,138,191,130,273,179,161
2.28,289,165,138,187,126,242,155,121
2.303,272,176,155,197,128,225,169,130
2.317,307,215,167,192,101,176,166,130
2.348,334,205,149,188,104,174,160,126
2.371,351,204,143,173,107,188,158,124
2.386,353,208,167,194,119,195,160,130
2.401,367,200,167,200,118,193,128,154
2.429,339,129,152,196,116,203,129,169
2.452,310,128,154,174,105,208,140,169
2.49,250,134,161,171,110,238,144,180
2.505,249,123,135,152,106,286,158,208
2.55,244,138,126,145,109,303,165,180
2.559,230,135,128,163,133,301,168,173
2.589,218,131,125,177,140,308,155,175
2.617,205,117,111,177,137,286,150,196
2.641,162,113,119,176,137,247,150,159
2.669,118,101,132,188,149,258,140,166
2.678,108,104,136,169,161,278,135,164
2.684,122,103,130,151,156,281,157,184
2.693,137,111,132,157,169,301,164,174
2.694,135,149,138,191,184,309,155,181
2.707,127,165,128,174,171,279,165,192
2.724,131,172,125,197,145,258,179,192
2.739,236,183,136,239,161,277,173,177
2.767,243,181,134,232,146,272,173,144
2.791,244,152,117,203,118,247,175,133
2.819,247,123,102,197,116,241,172,121
2.849,247,111,85,190,139,291,174,120
2.872,130,86,70,140,125,313,212,113
2.881,98,84,71,146,126,372,224,117
2.887,111,82,64,142,130,382,229,143
2.902,112,89,68,156,144,380,223,141
2.919,119,93,61,115,113,370,220,145
2.941,119,114,58,125,104,334,179,140
2.969,130,113,72,137,106,269,161,138
2.979,127,112,75,140,107,258,146,135
2.999,123,107,71,125,90,257,150,134
3.022,109,96,70,121,97,210,154,125
3.046,105,85,71,106,99,322,157,126
3.067,121,96,55,73,88,334,163,122
3.106,161,110,59,74,83,335,166,102
3.108,204,119,65,71,79,338,172,94
3.143,228,116,73,75,72,362,164,89
3.146,238,114,75,80,68,276,171,133
3.173,312,113,75,81,67,248,187,147
3.181,326,101,95,93,68,267,199,144
3.218,321,106,100,108,79,271,207,141
3.224,332,168,115,118,82,239,207,141
3.255,341,164,117,112,84,221,193,105
3.262,304,173,124,116,89,321,175,104
3.295,273,191,108,110,92,309,163,111
3.299,254,198,108,128,102,327,140,106
3.329,245,165,98,132,106,387,127,116
3.352,312,185,132,163,117,421,150,131
3.376,312,187,144,173,121,367,150,124
3.414,317,170,149,168,125,354,144,125
3.421,380,172,158,173,132,338,147,126
3.459,382,178,189,210,139,290,143,153
3.498,342,200,203,258,139,233,126,161
3.501,330,190,194,261,134,194,131,159
3.563,341,226,225,316,142,196,130,154
3.602,323,235,239,337,132,175,136,159
3.605,340,229,216,313,126,153,143,144
3.605,340,204,203,278,118,255,169,138
3.618,331,231,217,287,120,322,158,148
3.64,253,174,155,195,109,371,149,153
3.667,235,169,154,191,102,384,147,144
3.674,234,228,192,202,108,359,136,132
3.715,221,207,193,220,139,313,141,115
3.734,218,202,190,212,135,315,136,112
3.749,219,201,189,209,136,288,147,109
3.772,180,195,183,207,136,271,140,99
3.802,162,112,116,183,146,235,147,87
3.825,170,102,94,155,132,214,137,83
3.87,180,102,89,148,130,173,146,86
3.879,211,101,88,146,129,176,151,106
3.907,245,130,97,149,139,199,162,119
3.923,223,124,90,142,130,203,142,122
3.926,225,119,80,134,114,223,146,146
3.929,221,120,81,129,119,235,139,152
3.937,192,132,81,127,106,294,150,139
3.947,147,101,67,124,96,325,161,129
3.948,147,110,62,119,84,386,171,126
3.96,136,107,62,99,96,395,197,118
3.982,135,127,62,100,93,397,201,110
4.005,135,122,67,112,108,387,198,109
4.027,133,126,74,131,120,373,185,110
4.042,126,117,77,147,143,339,180,112
4.064,133,129,71,141,136,337,172,98
4.087,145,119,72,148,137,330,186,107
4.102,144,113,81,159,131,353,187,116
4.126,140,107,76,151,124,349,190,113
4.164,139,106,70,121,104,412,221,113
4.169,154,92,70,122,112,463,222,113
4.184,146,89,67,115,117,467,220,118
4.209,188,79,46,99,117,477,240,108
4.222,233,90,48,91,116,551,251,113
4.253,236,101,59,104,111,493,236,114
4.275,219,151,62,106,102,471,223,117
4.289,258,156,65,110,96,485,216,96
4.313,281,178,68,98,90,450,204,109
4.327,271,180,64,91,77,329,194,108
4.342,318,199,57,87,79,317,179,111
4.396,337,176,65,124,103,295,179,130
4.399,344,181,71,126,104,294,182,137
4.402,387,191,73,125,103,269,155,126
4.425,394,196,105,162,106,267,164,130
4.447,371,175,127,176,107,318,199,125
4.462,370,179,133,161,102,279,198,96
4.484,398,193,156,194,111,254,196,90
4.509,376,204,169,205,112,300,205,92
4.522,383,230,184,220,110,303,184,84
4.544,403,234,176,213,107,249,133,91
4.568,396,240,194,243,109,262,144,94
4.604,357,244,180,224,108,255,130,91
4.622,343,260,192,245,123,191,110,102
4.65,344,277,214,271,132,179,121,107
4.713,317,289,234,292,143,163,135,99
4.729,327,275,212,270,146,210,133,100
4.748,303,255,211,264,141,335,137,101
4.764,320,237,206,256,135,442,143,100
4.766,315,205,184,205,140,487,139,106
4.771,335,186,161,173,131,497,129,106
4.785,337,191,170,183,132,480,118,99
4.808,340,190,168,195,144,420,113,105
4.811,311,167,154,187,141,351,123,129
4.824,284,159,136,194,136,356,134,118
4.844,252,154,127,213,159,417,134,122
4.892,224,148,128,209,144,416,141,134
4.894,218,141,128,214,139,426,161,174
4.904,167,167,124,211,144,402,145,162
4.929,150,163,108,202,139,349,149,162
4.95,174,160,118,189,117,287,164,158
4.981,219,167,107,177,116,286,156,209
5.01,227,170,99,154,110,271,153,183
5.032,224,121,95,152,117,262,168,173
5.064,231,100,84,134,132,288,162,174
5.084,217,95,60,117,130,310,157,177
5.115,202,87,52,105,131,314,176,115
5.122,187,85,56,113,134,309,189,95
5.129,211,97,50,96,121,383,195,99
5.138,248,94,64,103,110,387,219,98
5.144,294,96,68,99,105,356,215,120
5.167,275,97,70,100,101,464,227,113
5.19,316,127,70,99,104,471,212,114
5.204,333,127,68,95,106,464,207,112
5.227,310,122,49,83,98,463,184,116
5.25,308,126,46,90,98,474,190,110
5.266,316,130,46,93,102,437,187,106
5.287,299,103,44,91,94,438,191,108
5.31,304,96,48,92,93,410,182,107
5.324,307,94,50,104,108,410,185,104
5.363,260,91,49,99,109,452,190,92
5.37,245,98,54,105,113,386,164,91
5.4,244,141,77,108,108,392,150,97
5.415,215,156,86,116,107,391,147,94
5.439,208,167,105,116,100,376,137,98
5.444,242,180,112,137,104,341,119,92
5.467,284,198,110,127,90,346,118,105
5.492,274,177,95,126,89,321,116,105
5.505,269,173,96,136,88,286,117,104
5.529,277,176,89,148,80,282,109,98
5.558,265,180,107,150,88,263,104,125
5.573,243,159,108,151,86,252,96,122
5.595,249,174,124,160,90,236,100,112
5.61,265,169,131,165,90,225,92,117
5.633,293,172,140,158,94,209,88,123
5.647,284,184,138,171,82,158,85,112
5.672,272,177,148,181,98,243,123,107
5.709,254,164,152,186,103,244,123,114
5.73,265,175,145,186,100,298,126,112
5.753,239,173,146,185,95,310,126,114
5.8,326,170,134,162,97,336,122,142
5.812,405,173,126,158,89,290,77,162
5.835,416,161,108,144,106,334,73,159
5.859,408,144,125,128,115,309,77,157
5.883,404,129,105,127,117,296,75,156
5.919,344,101,103,143,127,329,92,133
5.934,247,102,113,157,130,337,102,115
5.969,255,122,123,167,126,296,108,118
5.994,232,121,115,172,120,276,99,123
6.015,222,147,136,189,129,274,118,130
6.044,197,148,153,190,126,205,117,115
6.067,186,144,145,181,125,218,109,110
6.097,203,152,146,178,116,214,105,110
6.129,204,158,134,177,119,220,112,109
6.149,204,153,122,168,118,221,97,105
6.18,206,143,113,164,119,224,93,99
6.211,215,142,115,163,125,165,102,91
6.233,211,129,101,151,121,171,131,98
6.24,224,125,101,142,117,228,139,96
6.247,218,100,96,130,124,275,153,86
6.255,230,94,75,113,138,285,159,94
6.262,219,91,65,104,132,319,166,108
6.27,174,89,63,98,128,317,146,104
6.277,134,79,58,90,128,314,146,103
6.285,130,78,43,85,116,282,156,100
6.286,98,76,48,94,86,268,153,93
6.3,90,78,49,92,88,405,184,75
6.302,72,52,47,93,91,429,186,73
6.307,81,77,56,111,97,424,182,92
6.33,81,91,54,109,97,438,166,96
6.352,82,98,50,98,103,478,175,98
6.375,198,102,58,104,116,389,143,108
6.39,202,104,58,103,130,403,159,137
6.42,206,100,48,86,124,446,163,139
6.452,209,94,51,88,122,497,199,143
6.454,257,114,52,87,120,472,192,147
6.473,193,110,46,81,102,451,180,139
6.502,218,108,54,86,87,422,176,109
6.511,214,107,60,92,90,366,175,99
6.548,239,122,68,109,103,275,131,100
6.549,203,102,70,107,100,254,125,99
6.577,237,114,69,106,103,249,132,104
6.593,245,120,65,104,104,230,124,100
6.632,283,136,76,106,101,213,111,100
6.634,282,137,84,116,87,250,117,97
6.653,319,161,109,152,94,235,112,99
6.684,314,164,142,173,99,214,106,100
6.692,308,202,160,181,95,224,99,132
6.713,304,256,197,240,104,215,108,124
6.736,298,254,195,230,107,173,107,135
6.75,250,242,182,208,99,174,116,129
6.78,224,238,168,204,96,167,112,125
6.787,207,218,165,230,100,160,117,106
6.817,206,155,125,186,91,175,110,109
6.843,216,151,128,192,89,253,101,102
6.879,240,154,130,195,94,370,104,103
6.926,239,159,132,229,100,378,109,104
6.946,234,142,127,206,96,396,113,90
6.947,239,158,147,190,102,398,114,95
6.948,254,154,152,179,100,344,113,86
6.967,242,149,155,200,110,227,102,95
6.992,249,141,146,150,102,225,95,115
7.028,247,153,135,148,107,204,74,118
7.035,246,111,103,151,103,244,76,118
7.068,228,105,88,165,130,293,82,129
7.089,257,104,80,148,127,351,87,123
7.117,253,104,76,157,146,423,100,113
7.124,270,95,90,189,157,433,103,109
7.155,241,91,87,192,164,411,102,103
7.177,283,91,82,179,142,381,101,101
7.207,244,89,89,185,146,363,118,115
7.229,236,108,123,186,132,272,108,113
7.26,220,103,121,146,124,257,113,114
7.284,210,106,117,134,121,258,108,125
7.312,119,104,119,146,125,248,108,119
7.342,116,104,118,144,120,213,93,108
7.372,132,97,81,131,119,255,99,105
7.395,133,87,70,129,114,242,96,108
7.402,137,98,79,151,107,246,103,107
7.41,162,102,82,140,99,266,104,107
7.417,160,98,74,133,93,254,115,102
7.425,147,94,70,123,89,223,130,106
7.433,146,107,68,121,86,256,134,101
7.448,138,94,55,102,93,262,138,108
7.449,93,96,47,114,116,266,141,117
7.455,93,97,48,114,130,270,128,118
7.47,117,96,53,128,145,253,106,114
7.493,119,84,53,128,142,220,105,116
7.515,122,104,70,126,138,194,118,92
7.53,233,110,71,109,122,207,125,113
7.553,245,125,71,95,102,191,124,113
7.583,239,117,69,82,76,202,125,113
7.59,270,116,67,84,77,192,116,124
7.614,291,121,53,69,72,199,94,147
7.635,226,122,52,77,75,187,85,116
7.658,216,109,58,103,101,189,132,113
7.673,211,106,67,111,100,187,134,107
7.695,246,125,69,105,98,203,142,140
7.717,228,103,66,106,99,213,146,126
7.742,215,101,80,120,95,193,144,131
7.754,216,113,104,145,82,189,102,133
7.779,317,122,101,139,82,179,96,141
7.794,294,105,100,141,80,170,82,100
7.816,319,119,104,142,77,158,73,99
7.854,327,129,119,146,84,157,61,97
7.856,343,154,112,156,76,176,59,97
7.89,263,160,130,171,79,179,65,117
7.899,296,170,152,186,88,172,67,129
7.937,274,170,168,210,108,186,66,124
7.952,275,178,160,214,113,184,69,139
7.98,281,162,152,183,124,168,70,147
8.019,304,149,145,168,125,177,64,129
8.034,275,154,124,158,125,213,68,116
8.062,266,154,115,152,132,210,71,118
8.099,272,133,106,131,132,197,67,101
8.109,268,135,114,136,124,213,69,94
8.139,232,136,111,137,125,200,81,110
8.175,187,121,132,155,131,187,81,104
8.189,195,107,130,176,125,166,79,104
8.214,225,106,127,173,115,164,77,116
8.241,211,85,116,164,110,136,75,133
8.264,214,96,110,164,108,141,64,117
8.296,212,90,87,141,98,148,76,115
8.317,238,97,71,100,89,178,77,118
8.347,194,96,79,124,101,202,80,107
8.37,182,98,76,123,101,225,84,92
8.4,183,90,72,130,106,231,87,91
8.43,180,88,70,141,111,211,78,92
8.452,122,80,70,127,112,201,84,84
8.478,112,93,60,105,104,206,82,86
8.504,110,92,63,115,109,193,86,72
8.527,97,98,81,145,103,186,81,75
8.557,98,95,80,140,100,219,79,84
8.565,101,138,79,140,95,205,73,88
8.567,191,126,77,139,93,208,81,97
8.588,199,124,76,170,101,199,76,99
8.589,201,119,54,135,104,257,108,94
8.595,202,119,48,129,106,237,110,89
8.612,204,70,43,126,103,263,116,117
8.613,117,81,46,130,104,259,115,112
8.617,88,76,49,70,99,316,127,111
8.625,80,74,53,83,99,294,106,118
8.626,75,73,57,83,90,312,107,115
8.64,91,85,61,82,92,309,106,82
8.663,117,97,62,84,89,300,101,83
8.666,121,96,57,92,81,246,95,86
8.685,124,96,54,87,75,219,92,82
8.694,121,97,48,98,82,206,98,85
8.73,103,92,41,99,80,208,92,83
8.737,149,85,37,92,83,272,97,86
8.768,153,94,44,82,80,275,92,82
8.775,214,118,45,84,82,281,89,86
8.804,217,119,46,65,75,267,72,88
8.82,235,134,51,71,77,271,73,93
8.837,215,126,58,76,80,218,70,77
8.857,216,139,72,102,84,212,60,75
8.88,190,153,78,108,87,201,61,87
8.894,221,201,136,184,88,192,67,94
8.925,208,214,175,220,108,181,78,93
8.94,195,227,176,225,104,156,73,90
8.964,223,230,171,218,102,148,73,104
8.977,217,213,170,220,102,168,73,108
9.002,193,182,145,187,104,229,74,118
9.015,194,152,102,146,85,217,57,121
9.039,204,145,101,153,95,219,54,131
9.107,209,127,102,149,97,221,54,137
9.145,244,147,118,146,96,216,57,124
9.147,255,141,100,122,94,177,54,107
9.174,259,145,100,135,95,203,56,104
9.176,280,140,109,129,87,213,60,97
9.181,288,152,117,139,90,216,62,77
9.212,258,134,97,135,96,207,61,82
9.249,267,130,99,163,109,191,71,78
9.262,264,124,90,159,127,166,71,86
9.292,246,118,95,170,130,157,81,84
9.315,203,114,85,182,128,164,87,99
9.345,190,118,95,191,130,162,85,102
9.369,163,113,92,172,139,160,82,125
9.397,190,131,100,175,129,139,83,137
9.42,166,140,92,184,145,152,76,146
9.45,171,136,96,187,160,141,75,136
9.472,161,131,87,176,159,161,78,132
9.502,148,125,84,179,144,160,75,110
9.525,143,117,83,172,132,226,120,94
9.554,147,148,104,160,111,231,128,79
9.576,138,153,99,142,83,256,126,86
9.608,136,154,101,141,84,283,129,83
9.648,140,157,104,127,80,285,128,85
9.686,94,156,98,120,83,256,108,87
9.687,79,113,69,98,81,242,110,97
9.722,98,111,66,86,89,240,113,104
9.724,142,101,63,77,76,227,121,104
9.725,142,98,58,74,75,256,134,105
9.73,145,83,56,73,87,251,125,109
9.731,150,84,58,83,98,274,121,103
9.732,141,62,60,83,109,291,117,86
9.733,107,76,64,89,124,305,108,82
9.736,102,94,61,101,125,299,111,69
9.758,118,105,61,96,118,281,109,67
9.76,122,109,58,101,103,251,115,70
9.804,121,106,57,101,96,288,106,87
9.806,116,103,57,101,88,241,102,88
9.817,111,91,63,87,75,234,87,82
9.841,88,73,57,81,70,226,77,78
9.861,96,72,64,99,69,209,66,96
9.878,131,97,78,120,67,115,58,104
9.899,181,160,81,126,63,89,51,135
9.93,198,192,88,129,66,79,65,139
9.945,206,207,96,131,64,67,67,143
9.96,220,228,118,134,69,60,66,131
9.982,213,234,148,160,71,85,65,123
9.997,306,206,155,164,76,225,68,96
10.02,325,185,158,174,77,250,60,106
10.074,333,170,161,182,82,262,61,112
10.077,323,182,166,208,80,268,62,115
10.08,323,175,170,208,89,282,62,111
10.111,250,188,176,220,99,217,64,110
10.119,232,199,183,225,96,209,60,104
10.148,259,222,201,249,112,204,56,94
10.17,267,201,203,241,114,214,61,93
10.185,260,201,180,241,118,253,58,89
10.215,220,188,176,233,111,257,60,86
10.23,205,174,162,225,117,245,62,96
10.239,176,156,144,205,104,237,63,110
10.267,174,159,127,190,105,223,66,122
10.284,178,176,151,207,99,143,72,128
10.323,180,170,152,223,108,100,70,148
10.358,184,164,155,231,107,89,69,141
10.365,182,153,145,218,105,90,79,133
10.398,169,141,147,223,115,113,81,120
10.424,160,108,124,182,123,114,82,117
10.447,150,107,112,151,121,115,77,89
10.471,158,132,136,140,119,116,77,100
10.5,158,139,165,228,122,113,87,112
10.522,168,143,167,256,125,209,96,113
10.532,166,148,162,261,118,212,94,107
10.537,165,144,158,265,110,212,100,107
10.567,147,117,134,261,114,238,110,102
10.602,107,108,94,196,125,263,127,87
10.603,79,101,68,139,110,190,118,88
10.605,124,120,78,153,114,231,129,92
10.612,136,121,82,156,113,246,129,121
10.62,135,129,84,165,117,284,134,116
10.642,146,130,81,151,106,273,110,127
10.666,146,120,81,144,106,287,110,126
10.679,107,95,83,126,96,277,100,125
10.71,92,92,90,115,98,268,95,94
10.725,109,86,91,101,87,214,104,93
10.755,134,86,95,114,92,209,107,93
10.794,144,83,92,128,103,234,115,100
10.795,148,86,78,120,105,212,119,101
10.808,184,95,72,118,105,207,125,100
10.831,190,102,79,118,111,199,108,101
10.845,183,100,75,109,100,196,99,85
10.868,187,114,74,96,86,159,105,70
10.882,185,114,68,93,90,163,102,102
10.906,176,110,63,86,93,171,95,110
10.929,181,111,48,89,87,173,91,109
10.951,188,119,58,115,89,167,104,117
10.973,183,115,62,116,88,237,132,120
10.995,206,154,92,127,76,229,135,92
11.002,189,172,133,163,73,231,138,97
11.026,174,182,164,193,80,232,141,111
11.04,232,212,210,232,74,231,132,108
11.07,250,271,221,239,81,135,83,107
11.093,258,256,219,237,87,130,74,123
11.101,275,260,243,301,119,109,66,115
11.122,309,261,249,320,122,88,63,108
11.147,285,241,216,289,125,94,101,104
11.16,299,183,213,291,126,91,104,151
11.182,281,184,208,303,134,82,106,152
11.206,283,179,159,220,124,106,108,164
11.23,268,164,113,163,116,152,112,162
11.242,275,187,130,177,117,173,78,166
11.291,254,180,132,193,133,268,77,129
11.293,249,171,142,185,137,285,72,114
11.328,249,154,152,182,118,314,68,105
11.331,224,149,155,178,135,314,55,101
11.366,169,109,137,165,146,306,51,93
11.368,144,105,127,149,136,226,50,84
11.395,145,112,125,148,126,208,58,89
11.399,112,102,113,163,136,150,59,71
11.431,119,107,115,172,124,105,71,83
11.446,127,129,124,191,128,93,77,94
11.468,124,130,167,208,140,131,85,101
11.482,124,118,167,208,139,138,86,101
11.507,112,120,164,196,132,142,93,106
11.521,99,115,164,198,139,153,89,104
11.55,101,99,158,182,130,152,84,98
11.565,102,96,111,153,114,121,76,99
11.588,107,112,95,143,129,145,89,100
11.603,106,115,91,159,136,151,101,97
11.626,114,117,88,150,121,153,109,122
11.647,111,109,79,146,116,158,119,120
11.678,122,103,74,150,117,158,121,118
11.716,119,88,71,149,115,181,120,118
11.722,123,84,70,135,110,173,105,118
11.756,120,84,72,132,119,220,114,92
11.784,106,105,72,118,117,232,106,98
11.785,95,103,72,106,120,239,107,102
11.79,113,134,81,100,110,214,98,110
11.821,186,133,79,98,112,216,100,112
11.83,187,131,73,94,104,250,128,103
11.858,196,121,69,101,111,254,132,97
11.867,209,122,65,104,104,274,138,89
11.896,206,84,47,100,100,281,137,102
11.904,154,81,47,93,94,284,135,106
11.926,155,82,47,89,90,212,91,105
11.948,145,70,49,86,80,199,85,102
11.978,123,81,55,87,80,169,89,97
11.986,132,100,55,81,78,143,89,72
12.008,134,113,54,91,74,130,92,75
12.022,135,133,55,103,74,116,86,82
12.045,164,158,58,99,71,98,87,83
12.067,237,181,89,118,68,80,61,94
12.091,250,187,121,141,78,104,54,95
12.116,271,188,125,140,81,165,51,106
12.128,284,184,139,153,100,170,57,112
12.15,287,168,142,161,102,197,56,127
12.166,284,156,129,146,98,203,59,136
12.187,295,168,141,141,89,191,62,137
12.234,268,163,151,160,107,141,65,122
12.236,254,160,154,173,110,165,66,111
12.274,266,169,171,178,110,133,65,102
12.277,288,164,171,181,109,123,70,96
12.317,275,151,169,201,123,119,70,92
12.333,294,176,202,261,123,121,65,104
12.368,312,187,236,277,114,85,63,121
12.369,293,178,224,280,130,122,81,121
12.397,223,171,232,279,135,128,77,120
12.439,201,155,213,262,126,130,77,120
12.45,186,133,176,203,116,138,78,111
12.472,172,121,117,159,118,136,75,110
12.504,160,115,118,145,105,119,70,106
12.525,159,129,110,152,103,116,72,100
12.559,160,143,122,171,114,135,72,107
12.579,162,136,116,149,111,124,68,103
12.609,141,139,139,156,108,118,68,98
12.632,137,141,135,166,125,176,66,104
12.667,139,134,123,156,125,176,70,119
12.682,134,116,110,131,133,161,76,116
12.712,114,108,111,131,131,226,89,117
12.72,122,90,74,112,128,234,91,109
12.743,130,85,73,103,109,213,81,113
12.752,114,70,70,97,116,215,77,100
12.754,129,89,80,108,98,250,87,93
12.78,168,96,83,107,97,203,90,96
12.789,166,99,86,104,102,220,102,104
12.819,159,115,82,95,108,193,103,100
12.825,172,116,81,112,99,223,117,94
12.832,168,102,69,99,98,239,108,102
12.84,134,109,60,111,97,236,98,110
12.848,134,111,57,112,91,218,86,100
12.855,140,112,67,125,88,218,92,106
12.894,124,112,75,112,82,188,78,105
12.897,120,117,75,116,93,135,85,98
12.932,113,102,73,104,91,141,95,91
12.934,101,101,68,103,94,143,96,91
12.945,99,89,60,84,92,146,98,76
12.971,104,84,53,86,102,142,94,84
12.99,174,89,55,86,86,185,89,84
13.014,190,91,53,85,86,181,85,81
13.061,199,108,56,83,89,180,92,86
13.063,202,112,62,91,87,183,86,89
13.096,225,111,63,92,88,188,88,85
13.098,183,113,64,79,86,145,82,103
13.119,189,128,71,89,89,137,76,103
13.151,202,116,83,123,95,140,64,102
13.153,200,107,80,126,97,142,66,100
13.17,203,123,94,134,116,138,64,99
13.192,212,134,125,172,129,119,66,79
13.223,216,129,124,171,137,111,65,74
13.23,230,132,157,226,143,99,67,76
13.259,248,150,166,233,143,89,63,80
13.269,272,154,172,237,123,82,61,85
13.314,273,143,173,226,119,69,70,101
13.316,312,168,191,234,111,69,69,102
13.344,317,164,164,172,97,76,67,97
13.389,322,161,162,161,105,75,64,100
13.391,320,159,144,145,103,70,62,102
13.42,320,167,143,142,104,78,55,98
13.434,266,138,139,191,149,82,71,107
13.462,240,139,141,196,148,97,74,115
13.5,217,125,132,198,144,115,79,111
13.515,288,114,132,200,157,122,79,108
13.545,285,105,104,186,155,119,76,101
13.575,289,134,92,133,115,117,60,88
13.599,283,144,89,125,125,116,70,82
13.62,280,143,95,139,146,96,68,87
13.65,201,139,98,141,142,126,73,89
13.672,199,141,102,146,140,132,83,116
13.712,191,111,84,158,143,140,105,128
13.739,215,94,91,216,170,171,103,127
13.758,221,103,90,213,155,175,111,123
13.787,212,158,90,215,155,176,110,136
13.807,210,155,91,235,168,181,108,121
13.83,217,160,102,231,173,179,95,118
13.86,194,156,95,174,136,142,85,112
13.89,187,167,92,164,136,154,80,110
13.912,170,116,86,154,125,162,94,106
13.929,156,107,81,127,103,170,107,105
13.93,145,96,68,115,86,175,107,99
13.935,135,109,52,105,85,182,113,99
13.937,156,90,50,99,82,217,139,105
13.942,133,89,50,101,80,221,137,102
13.961,131,89,49,94,92,232,136,96
13.962,130,95,54,92,95,235,135,114
13.966,132,83,53,99,90,270,140,119
13.973,124,102,54,100,89,240,131,115
13.981,180,102,56,105,91,234,130,104
14.003,181,129,68,116,76,230,118,102
14.01,192,144,63,106,68,281,116,79
14.042,193,143,66,102,71,249,110,99
14.047,197,127,63,99,59,248,111,103
14.086,145,128,61,95,57,237,108,99
14.092,160,101,48,82,58,221,110,100
14.107,144,75,46,105,60,143,108,99
14.13,144,82,42,106,64,152,103,72
14.171,158,86,41,109,70,143,70,67
14.182,177,86,42,109,70,127,58,60
14.191,189,86,38,101,66,121,50,57
14.221,238,118,43,77,65,109,49,76
14.226,286,123,60,73,61,72,67,86
14.258,267,128,85,85,60,97,74,86
14.272,256,151,106,107,71,156,73,96
14.311,318,164,116,115,71,204,76,109
14.314,333,161,118,125,77,206,86,114
14.334,307,163,118,133,78,225,83,110
14.355,314,166,109,129,90,228,78,121
14.379,326,152,92,118,92,193,79,123
14.409,270,140,81,117,98,146,77,113
14.411,220,142,132,161,103,147,71,99
14.454,232,145,144,166,107,116,72,108
14.462,235,141,149,173,106,106,74,111
14.494,219,140,152,172,100,110,79,131
14.527,268,144,152,176,99,107,90,139
14.542,288,125,121,140,96,109,87,140
14.572,266,120,101,157,117,114,75,135
14.618,262,125,112,158,111,99,77,121
14.624,309,117,105,154,113,91,76,111
14.655,260,115,104,154,125,83,60,106
14.684,249,149,103,171,139,82,63,104
14.7,247,180,148,171,122,75,68,101
14.709,243,176,166,207,153,82,64,103
14.739,174,175,172,220,154,83,58,83
14.775,175,176,172,216,153,97,69,89
14.79,143,148,166,201,144,97,66,88
14.814,141,106,124,187,146,106,65,93
14.842,133,106,77,148,125,105,68,92
14.872,122,112,63,133,132,173,89,86
14.895,77,105,63,133,127,222,95,67
14.903,76,94,57,126,125,259,121,67
14.91,71,89,58,120,129,262,124,62
14.917,104,87,52,102,117,275,128,73
14.925,111,85,56,111,106,247,119,86
14.932,139,110,56,113,103,212,111,89
14.949,140,116,56,106,99,344,167,87
14.951,138,114,58,97,85,351,170,85
14.957,114,109,60,99,90,348,173,82
14.994,106,102,53,80,90,353,181,67
14.996,117,75,53,84,89,363,184,63
15.039,138,87,51,94,86,213,119,61
15.041,142,89,46,92,86,233,139,60
15.054,144,84,42,84,79,221,136,44
15.077,178,103,48,88,84,214,122,66
15.09,169,110,49,76,81,197,125,76
15.121,155,99,47,58,78,185,120,85
15.159,152,96,48,60,78,148,93,86
15.161,151,98,50,86,77,173,89,87
15.182,160,122,62,96,68,163,90,85
15.219,141,122,60,97,71,150,81,77
15.221,143,139,60,100,80,148,76,69
15.248,147,136,59,114,79,131,69,72
15.255,178,156,67,108,87,109,65,86
15.27,154,167,103,115,93,120,71,77
15.292,156,183,116,134,96,126,74,84
15.323,269,185,121,148,101,131,93,96
15.33,301,208,147,151,101,140,95,119
15.36,320,206,159,157,94,125,98,123
15.375,356,185,145,181,93,109,89,124
15.399,364,180,153,183,85,100,89,123
15.412,301,182,179,195,85,99,71,134
15.445,287,185,207,218,88,90,68,121
15.482,283,174,200,225,89,91,62,108
15.484,252,167,193,207,94,118,63,109
15.518,273,164,187,208,115,151,58,105
15.527,260,153,173,220,126,147,58,88
15.547,244,139,128,204,127,144,60,84
15.572,213,137,125,202,153,163,69,91
15.609,196,135,132,205,153,146,70,91
15.646,147,149,121,196,154,110,69,91
15.676,142,141,103,163,149,115,68,90
15.683,133,122,89,157,163,124,67,96
15.689,113,121,85,143,146,104,61,119
15.698,97,128,71,129,143,105,61,117
15.7,107,93,70,123,133,100,60,120
15.712,106,90,70,119,132,99,62,115
15.735,104,89,77,122,118,133,64,112
15.766,100,80,75,123,120,161,64,95
15.772,89,69,81,125,129,172,90,94
15.795,78,80,80,121,122,177,98,94
15.818,106,91,77,127,118,186,103,105
15.84,117,86,60,107,115,173,113,97
15.854,116,86,56,98,107,173,118,88
15.878,124,127,54,95,96,180,103,86
15.908,138,127,58,106,107,187,100,94
15.915,121,134,58,94,105,187,112,88
15.937,113,138,56,93,106,207,107,86
15.952,120,141,56,97,112,241,109,81
15.983,120,114,49,128,117,237,109,84
15.998,98,108,43,142,119,266,130,67
16.021,112,87,46,142,116,271,119,59
16.043,156,82,43,139,111,274,119,62
16.066,160,76,44,141,115,244,124,58
16.105,165,115,60,134,136,286,135,60
16.107,243,137,67,116,129,349,150,77
16.118,239,139,69,120,129,356,149,81
16.148,218,140,76,135,131,349,150,81
16.155,219,145,79,139,121,339,143,84
16.196,257,158,74,118,87,305,146,100
16.198,204,163,73,110,98,234,110,103
16.24,249,169,73,124,112,233,114,108
16.242,268,184,85,117,111,218,114,122
16.261,311,186,91,109,110,213,108,121
16.275,317,165,88,114,117,243,100,124
16.298,325,192,125,179,109,245,114,119
16.313,300,191,127,171,114,229,111,116
16.351,295,198,176,208,125,229,102,100
16.357,244,237,195,242,130,268,116,102
16.395,259,246,212,253,131,251,110,133
16.409,253,208,190,225,132,218,93,140
16.439,244,207,189,225,116,218,91,139
16.47,259,226,166,225,113,251,98,145
16.493,261,197,170,202,117,238,81,144
16.517,218,179,177,212,116,214,76,106
16.563,241,181,178,206,125,216,77,120
16.569,285,177,180,211,129,220,79,128
16.6,265,140,158,197,134,178,74,123
16.627,270,131,143,215,139,147,81,124
16.65,259,124,107,197,143,170,81,116
16.682,223,124,107,191,135,158,74,95
16.718,159,138,99,183,128,143,68,88
16.732,139,152,95,164,119,165,74,93
16.757,131,157,88,126,117,188,119,92
16.779,105,155,93,119,111,188,126,90
16.807,109,158,93,118,108,266,154,86
16.837,123,155,93,110,115,298,155,103
16.839,123,129,87,106,112,317,161,96
16.855,114,108,66,121,110,329,144,98
16.861,117,96,58,120,108,324,144,102
16.862,136,91,59,119,113,312,138,107
16.9,125,82,57,129,126,323,141,89
16.902,124,69,55,142,123,307,134,85
16.904,125,85,50,121,115,304,127,83
16.906,122,87,47,116,110,305,130,76
16.907,87,88,42,123,105,294,113,65
16.936,80,79,43,114,79,267,114,63
16.938,93,90,48,91,74,287,123,80
16.973,87,79,50,93,74,274,113,84
16.981,86,84,59,115,106,279,102,83
16.995,107,95,62,106,121,264,99,80
17.018,105,94,61,106,122,258,94,85
17.041,143,113,60,102,122,258,89,79
17.055,165,116,55,93,122,273,97,77
17.094,167,119,54,95,120,299,95,76
17.101,180,115,54,95,103,274,96,86
17.14,237,134,59,100,100,262,92,96
17.142,261,123,58,104,98,229,88,98
17.161,269,121,66,131,95,198,84,100
17.184,341,117,61,123,69,134,87,110
17.198,346,118,61,122,72,170,87,110
17.227,314,97,64,122,74,237,99,113
17.237,335,127,91,130,86,241,101,114
17.266,381,148,101,119,97,241,102,116
17.281,340,157,110,116,93,245,109,107
17.303,341,156,112,134,94,221,104,102
17.318,441,201,109,134,93,144,101,88
17.341,431,195,115,165,103,122,93,78
17.387,399,186,103,180,100,106,83,77
17.389,400,199,105,185,97,92,66,83
17.426,425,200,115,191,101,162,92,88
17.438,343,191,138,223,111,204,93,83
17.476,321,209,147,228,99,231,113,84
17.49,312,227,178,231,101,239,118,97
17.513,292,223,197,240,110,248,126,96
17.544,278,228,204,247,103,225,107,96
17.588,272,207,199,226,97,208,106,103
17.595,257,178,186,209,107,177,85,107
17.619,240,148,158,186,103,194,88,94
17.655,242,134,129,182,100,184,82,90
17.67,240,126,114,168,117,165,87,83
17.708,282,124,97,155,119,184,91,83
17.724,306,120,81,154,121,237,101,83
17.753,309,119,75,153,119,219,102,83
17.792,309,111,76,133,120,252,104,90
17.813,267,125,62,120,116,252,108,92
17.829,211,127,60,127,117,222,99,84
17.858,164,133,66,111,106,168,104,79
17.891,156,135,69,116,109,184,95,72
17.91,154,131,60,111,105,197,99,84
17.927,153,111,61,110,109,224,106,82
17.929,229,104,59,101,117,234,111,109
17.932,242,90,52,91,116,239,103,113
17.941,236,94,52,87,120,242,115,114
17.948,234,100,58,132,140,239,140,100
17.972,240,104,57,131,133,217,129,100
17.973,146,97,62,134,130,208,128,80
17.975,115,114,60,143,147,218,134,74
17.978,117,116,62,140,140,231,129,74
17.979,111,126,63,106,123,194,101,84
18.001,104,125,69,114,121,205,108,83
18.031,94,128,67,114,119,220,111,80
18.046,127,108,66,102,103,235,112,90
18.085,143,99,60,100,102,233,112,91
18.088,143,85,53,88,94,245,105,82
18.106,142,99,43,79,93,243,99,81
18.128,181,103,45,78,85,246,94,89
18.143,162,106,49,86,74,229,74,80
18.166,151,104,50,85,73,230,73,78
18.189,157,101,48,84,75,224,80,91
18.211,289,97,47,71,72,219,77,105
18.25,284,113,65,83,76,201,78,109
18.252,297,115,68,83,76,191,87,113
18.271,322,134,72,129,99,146,82,116
18.302,351,151,91,151,106,143,78,109
18.305,274,151,104,157,108,129,82,101
18.323,263,142,110,166,101,166,83,101
18.355,353,161,122,175,99,161,76,101
18.362,343,171,132,166,97,165,76,101
18.383,354,175,137,167,98,150,74,110
18.405,359,188,139,185,110,148,74,107
18.422,363,193,135,177,117,125,75,95
18.46,275,194,156,201,117,121,73,93
18.465,275,194,160,190,105,129,66,92
18.503,240,184,159,212,105,143,63,86
18.544,230,168,159,205,98,205,70,86
18.555,233,162,154,200,93,224,63,83
18.572,224,149,143,172,105,241,68,86
18.593,275,125,137,165,109,249,78,94
18.622,268,133,126,120,107,256,91,101
18.692,283,170,129,128,105,208,81,102
18.694,290,171,141,166,123,171,82,100
18.697,301,165,132,177,129,151,84,99
18.739,249,184,124,187,127,166,85,103
18.752,237,191,124,185,135,161,101,94
18.789,197,162,116,183,141,165,105,92
18.82,198,152,102,170,135,169,109,113
18.832,192,164,83,159,132,190,131,115
18.857,191,139,94,158,145,168,133,109
18.889,187,131,90,158,140,178,117,112
18.922,180,123,85,138,148,233,137,112
18.945,157,126,86,125,149,261,158,98
18.968,129,107,84,115,142,280,142,92
18.999,106,101,70,105,148,305,147,90
19.0,118,79,65,100,153,298,168,83
19.005,126,87,59,124,144,304,178,93
19.022,175,108,51,115,140,286,158,91
19.023,188,110,49,112,145,280,164,90
19.044,187,112,45,111,119,275,156,98
19.045,179,109,45,127,114,304,152,98
19.046,177,116,45,104,107,264,123,90
19.049,134,105,49,99,97,292,142,86
19.057,182,101,47,95,81,288,142,93
19.064,192,99,49,104,91,294,141,81
19.081,198,97,50,117,90,268,132,76
19.127,194,109,57,122,86,308,149,75
19.129,186,103,56,125,86,319,134,82
19.157,128,100,56,126,86,333,123,74
19.163,115,103,59,115,85,313,123,75
19.188,163,114,57,77,74,312,107,76
19.208,192,108,53,111,81,294,85,76
19.222,214,118,49,108,79,264,82,68
19.244,219,119,51,109,82,233,84,65
19.286,235,128,48,112,73,225,87,64
19.288,220,123,48,114,70,210,85,66
19.305,243,137,49,73,62,166,76,70
19.33,279,124,49,86,84,172,80,93
19.344,312,125,50,87,85,153,73,96
19.374,316,143,63,108,86,153,69,97
19.387,347,162,63,109,86,164,69,98
19.41,347,171,81,115,89,213,66,99
19.425,327,246,125,121,82,389,59,85
19.45,340,275,166,135,76,394,60,82
19.463,362,284,184,147,87,421,73,78
19.487,362,281,201,168,95,438,82,99
19.526,368,271,227,191,103,456,92,102
19.528,365,208,210,185,104,321,92,100
19.568,327,177,182,180,108,320,92,97
19.57,314,142,161,177,112,314,78,99
19.582,319,128,142,161,108,300,66,77
19.606,294,118,93,146,104,248,52,75
19.644,289,161,122,158,97,230,58,79
19.646,342,170,140,164,102,234,58,83
19.672,339,190,143,145,90,199,72,81
19.689,325,193,145,149,98,175,75,85
19.702,319,209,140,139,115,162,80,83
19.725,301,177,118,134,115,146,76,74
19.756,230,159,97,120,107,124,75,75
19.763,208,140,91,118,120,154,78,82
19.785,169,131,80,110,113,156,81,77
19.81,156,92,75,106,94,163,81,77
19.837,155,88,69,107,103,189,99,75
19.86,155,88,66,112,106,196,104,69
19.892,153,75,73,114,95,165,99,66
19.922,127,74,76,117,102,246,103,66
19.924,118,73,76,136,118,246,108,60
19.929,116,73,67,118,116,249,111,66
19.95,133,98,67,115,116,266,116,75
19.967,112,96,55,117,118,282,129,77
19.99,112,91,53,116,119,238,127,76
20.003,112,89,58,99,106,236,123,78
20.035,112,92,58,115,103,214,117,75
20.048,91,94,67,128,106,207,122,71
20.063,95,129,77,129,99,259,124,65
20.085,99,135,78,136,85,284,120,63
20.11,96,140,76,127,81,295,123,63
20.13,137,142,77,118,74,309,120,73
20.153,137,134,65,100,66,337,128,72
20.176,136,109,57,95,75,355,115,69
20.19,138,106,56,71,87,335,119,71
20.213,154,101,48,69,88,342,116,80
20.229,127,114,44,94,99,335,113,74
20.267,123,106,44,95,99,298,85,81
20.269,157,111,41,89,93,223,83,81
20.296,204,141,62,99,84,198,79,80
20.311,207,164,63,100,79,164,71,65
20.363,233,167,65,69,62,153,60,62
20.403,252,173,71,69,62,146,68,74
20.405,312,178,75,73,58,123,58,104
20.409,292,178,59,72,55,200,62,112
20.411,288,186,112,137,66,290,70,118
20.448,322,175,115,151,74,302,78,118
20.45,315,180,121,160,72,316,73,108
20.483,323,192,124,165,76,323,77,93
20.49,341,177,141,178,93,298,80,85
20.515,381,167,131,162,97,236,93,79
20.568,355,170,133,163,106,250,108,130
20.57,375,162,131,163,115,245,117,135
20.574,335,152,138,174,122,231,118,128
20.596,328,157,132,184,119,225,114,130
20.643,319,154,109,175,109,217,98,132
20.649,318,148,106,166,96,187,86,83
20.679,324,158,104,159,85,176,82,82
20.717,309,142,87,146,104,170,78,80
20.746,306,156,80,114,97,156,81,75
20.753,280,138,80,106,114,137,82,73
20.798,264,145,84,112,118,133,74,78
20.805,245,139,86,123,123,159,75,83
20.835,229,130,90,127,104,172,82,87
20.867,217,96,80,140,112,169,79,102
20.887,246,93,75,148,101,160,82,102
20.909,238,89,67,147,103,156,88,97
20.94,217,75,70,142,99,178,110,97
20.97,212,102,70,154,128,179,110,95
20.993,211,105,73,145,125,179,117,80
21.017,144,108,74,132,125,203,139,80
21.045,136,100,75,128,122,285,150,81
21.053,130,108,62,122,121,263,136,65
21.059,136,86,58,95,94,285,139,67
21.067,128,98,51,82,88,284,135,81
21.076,133,109,56,88,84,302,129,80
21.082,133,111,54,88,89,250,122,80
21.09,134,107,60,100,106,293,122,84
21.098,132,106,58,116,106,286,132,83
21.105,117,89,58,120,103,361,156,76
21.113,102,76,51,107,101,346,153,76
21.127,99,74,51,118,104,336,145,72
21.15,91,85,45,112,89,291,137,68
21.173,92,87,46,105,92,296,140,65
21.187,114,85,45,106,97,221,118,57
21.21,119,84,43,104,96,234,105,54
21.233,139,81,41,88,87,242,106,60
21.248,161,64,40,99,95,279,137,72
21.27,212,88,36,86,91,258,139,73
21.301,205,128,43,80,88,247,140,81
21.308,206,186,66,86,91,305,178,94
21.338,199,214,74,101,100,409,243,97
21.354,209,232,79,93,93,474,242,98
21.384,172,226,80,97,83,568,238,99
21.39,178,228,78,96,83,580,240,108
21.445,210,201,72,97,81,558,220,113
21.447,227,191,67,90,78,502,168,127
21.474,209,191,62,93,78,449,167,119
21.48,201,194,65,92,83,363,181,118
21.496,220,177,63,106,101,344,188,110
21.511,242,183,53,115,106,315,191,110
21.533,235,172,58,117,111,342,178,90
21.548,261,159,58,123,117,312,170,106
21.586,286,154,58,121,116,259,151,115
21.594,277,150,61,114,101,250,141,110
21.64,239,129,59,114,98,251,132,107
21.642,236,123,64,118,100,162,135,109
21.678,245,125,65,107,96,182,148,98
21.68,253,122,68,112,94,181,154,86
21.751,253,132,75,129,104,187,153,88
21.753,250,134,81,123,105,178,150,85
21.783,251,142,75,115,93,169,140,80
21.789,209,133,75,129,105,142,120,75
21.791,191,136,72,125,110,165,106,82
21.821,210,137,73,118,109,163,98,78
21.833,220,162,80,122,109,169,92,70
21.84,214,154,79,123,112,195,91,67
21.87,234,155,83,108,99,188,77,70
21.895,227,159,82,122,102,228,65,68
21.923,250,169,85,131,100,329,68,74
21.93,244,134,81,128,95,401,62,74
21.938,252,128,81,144,119,455,65,75
21.953,237,141,94,169,127,510,66,70
21.968,215,136,93,161,123,540,103,60
21.99,151,106,82,148,121,499,101,51
22.014,138,114,79,149,146,451,102,39
22.036,110,132,84,137,127,383,99,39
22.05,108,127,68,104,115,311,98,40
22.073,115,125,67,102,117,212,62,46
22.096,104,120,65,109,131,215,70,56
22.11,102,108,62,109,112,203,75,56
22.133,95,89,52,105,112,270,105,56
22.156,74,58,47,103,112,283,114,54
22.17,52,54,49,106,109,275,120,54
22.193,49,56,48,100,93,250,124,44
22.217,50,70,48,112,108,283,137,48
22.238,53,72,49,107,116,270,134,47
22.253,54,70,45,107,117,284,145,51
22.276,50,75,50,133,130,349,177,54
22.29,65,76,55,136,132,356,175,53
22.314,110,126,63,138,127,346,167,55
22.336,118,139,65,138,117,375,175,59
22.359,131,142,72,140,122,399,187,58
22.373,196,154,70,115,104,356,153,63
22.397,277,173,72,117,98,372,153,94
22.412,293,144,67,109,83,370,157,100
22.457,318,143,65,118,87,332,132,102
22.46,325,146,66,119,79,270,92,105
22.47,305,165,84,130,88,262,91,112
22.495,311,165,101,128,92,252,76,108
22.518,341,170,104,124,96,223,55,106
22.546,392,201,171,178,104,190,58,105
22.554,404,232,183,194,105,207,52,107
22.584,456,256,189,209,110,196,51,100
22.59,446,247,181,206,107,215,54,82
22.621,419,328,223,234,115,283,100,86
22.636,360,316,197,217,120,283,107,85
22.659,365,297,217,226,124,287,115,90
22.673,322,265,212,234,127,292,120,87
22.706,284,268,211,242,137,253,126,88
22.727,261,153,171,219,125,187,94,78
22.756,271,136,170,199,114,208,81,78
22.78,343,166,151,174,123,193,73,107
22.815,324,161,148,146,114,213,63,112
22.83,310,160,153,169,109,214,47,107
22.86,312,190,150,163,111,271,103,112
22.885,296,183,126,153,116,260,107,128
22.913,188,151,96,159,112,262,115,96
22.943,161,149,95,171,135,252,125,88
22.945,152,145,91,143,137,263,136,91
22.95,150,108,87,157,146,226,111,88
22.96,187,111,86,166,140,221,110,66
22.965,157,107,96,173,146,210,105,71
22.995,153,111,100,162,141,274,103,75
23.018,162,125,104,155,138,281,110,73
23.048,232,115,98,134,132,273,104,80
23.072,238,108,102,140,132,267,106,81
23.1,243,107,93,127,116,264,108,81
23.13,269,125,86,121,99,182,98,75
23.153,318,115,94,134,102,180,80,86
23.183,322,110,99,140,98,149,78,87
23.205,306,148,100,128,95,148,72,86
23.235,305,153,109,141,114,145,61,86
23.265,327,140,119,141,107,144,65,95
23.295,300,143,110,134,111,90,61,99
23.31,297,161,122,143,117,89,64,104
23.317,294,134,123,140,120,94,87,102
23.325,303,135,130,125,110,99,88,103
23.334,262,157,132,129,123,120,89,97
23.34,258,172,149,145,117,141,97,91
23.348,259,171,155,137,106,149,97,89
23.356,276,177,157,139,103,140,75,88
23.363,297,176,151,136,104,136,79,85
23.385,300,160,159,146,109,121,73,90
23.409,296,154,149,137,115,97,61,96
23.438,250,151,135,158,121,93,63,98
23.46,218,147,145,171,124,92,65,99
23.49,201,146,138,173,118,107,58,101
23.513,238,141,118,153,97,120,61,100
23.537,231,118,108,148,96,139,67,96
23.565,224,103,111,153,106,156,71,86
23.589,249,108,91,144,102,161,72,87
23.617,233,107,95,145,116,151,73,94
23.64,194,133,99,153,124,143,75,100
23.67,175,134,106,146,115,125,72,90
23.7,216,133,100,114,120,98,61,92
23.716,207,129,101,108,123,93,61,94
23.745,200,130,96,105,120,111,69,92
23.768,189,118,91,106,122,129,75,77
23.798,201,118,82,104,124,129,71,80
23.82,178,138,98,123,107,132,70,76
23.85,181,150,110,147,104,136,69,81
23.873,194,155,113,145,98,120,62,69
23.897,218,144,110,138,103,94,52,74
23.925,220,151,111,152,105,89,56,72
23.948,204,181,139,163,103,80,57,74
23.978,224,172,132,142,99,65,61,73
24.0,221,175,145,147,100,65,63,77
24.025,212,181,155,152,81,63,62,75
24.053,208,176,156,143,78,60,61,78
24.077,232,135,126,107,80,60,62,78
24.107,285,147,145,159,92,66,59,87
24.128,280,138,131,154,92,62,59,90
24.152,291,152,124,147,101,69,58,100
24.18,334,167,133,161,101,70,55,112
24.205,345,182,140,167,107,87,53,113
24.232,283,178,119,128,97,86,51,111
24.27,293,178,122,137,98,85,57,126
24.285,300,163,124,146,94,77,57,119
24.3,248,147,120,143,97,81,58,108
24.316,204,125,108,145,94,97,53,103
24.338,228,107,107,133,93,122,58,134
24.353,242,104,108,122,85,128,49,152
24.368,257,94,108,111,85,132,48,155
24.384,268,96,98,89,80,150,64,155
24.404,267,92,88,78,71,139,79,155
24.419,238,107,99,117,91,117,81,124
24.436,203,110,92,132,93,112,81,76
24.457,154,107,85,131,88,106,83,74
24.472,162,109,90,141,87,73,70,99
24.488,173,108,102,143,94,61,57,127
24.505,182,132,112,119,85,69,53,142
24.533,200,127,112,108,87,72,58,147
24.556,184,127,110,127,91,91,57,150
24.584,170,123,120,127,106,115,58,140
24.607,262,116,117,139,102,114,59,128
24.631,261,82,103,138,99,115,59,116
24.66,258,87,113,146,100,112,52,114
24.685,265,96,115,129,94,98,55,104
24.712,260,97,97,129,83,69,56,107
24.735,192,96,88,113,85,70,55,103
24.765,215,94,89,115,81,63,50,93
24.787,209,106,79,110,87,99,56,93
24.812,232,99,76,109,90,117,55,100
24.84,303,110,80,100,85,119,50,110
24.863,295,116,92,105,84,115,50,122
24.893,281,113,83,102,89,114,50,135
24.923,281,108,87,104,86,86,47,137
24.946,268,105,96,119,86,55,48,136
24.968,197,94,96,159,102,51,49,126
24.992,195,99,93,163,101,54,50,103
25.02,192,106,97,159,101,56,51,95
25.043,208,102,99,158,93,60,56,96
25.073,192,116,92,148,94,66,59,94
25.096,179,113,88,103,82,65,65,110
25.125,163,115,82,87,76,58,65,110
25.148,159,114,82,98,73,54,64,105
25.17,160,114,69,88,76,46,56,98
25.2,164,103,75,90,73,41,50,106
25.223,168,131,93,103,77,47,47,108
25.253,173,123,95,115,88,46,47,112
25.275,175,121,94,109,89,48,50,114
25.299,160,124,98,116,87,53,50,110
25.328,170,129,108,153,107,54,55,121
25.35,163,104,92,147,106,53,52,114
25.381,149,103,84,137,97,57,50,111
25.403,158,100,84,138,102,58,47,108
25.411,165,119,82,129,104,55,47,115
25.426,160,128,64,93,90,55,52,97
25.427,154,125,76,95,83,55,51,83
25.442,154,125,82,95,88,54,49,80
25.444,153,130,84,88,81,52,50,78
25.448,147,103,93,96,87,52,49,97
25.45,134,95,103,112,86,50,42,105
25.464,150,97,107,122,89,48,47,110
25.465,163,99,111,141,96,47,54,112
25.471,154,110,136,157,101,51,55,115
25.478,180,114,130,156,97,55,56,103
25.485,182,128,123,149,105,54,54,101
25.501,173,129,119,141,107,54,50,100
25.503,173,130,112,123,100,55,49,105
25.509,165,112,113,116,101,62,51,105
25.515,116,120,137,122,97,66,56,101
25.523,120,129,186,132,87,69,60,101
25.545,132,151,196,139,83,76,72,100
25.575,177,171,204,155,91,109,70,97
25.598,213,189,192,146,78,139,67,100
25.622,215,183,172,135,81,146,65,94
25.651,232,162,127,112,75,148,71,92
25.674,248,146,131,108,78,145,60,92
25.702,240,123,120,98,69,124,60,99
25.725,244,110,116,108,85,92,63,101
25.754,250,109,124,121,86,79,65,105
25.778,237,111,123,122,88,71,52,98
25.8,306,116,99,116,89,69,52,150
25.808,288,130,96,126,98,73,55,151
25.815,276,121,107,125,88,61,67,157
25.846,277,125,109,112,85,59,67,161
25.868,286,120,102,112,87,59,68,160
25.905,201,110,105,126,86,65,75,128
25.92,219,114,110,105,77,59,75,129
25.936,219,130,113,119,78,58,65,126
25.957,212,139,108,141,90,57,58,123
25.972,343,147,115,153,97,86,76,131
25.988,339,146,111,139,95,82,72,113
