time,e1,e2,e3,e4,e5,e6,e7,e8
0.121,103,141,103,163,127,476,267,153
0.142,101,140,103,143,124,406,259,155
0.159,124,141,103,140,123,349,293,169
0.182,129,136,96,152,103,301,302,178
0.203,119,124,77,127,95,262,312,163
0.218,120,117,58,119,107,236,317,156
0.241,125,118,56,126,103,228,324,156
0.263,100,120,56,125,107,239,296,138
0.278,96,115,79,134,105,221,273,122
0.303,111,122,83,137,101,182,266,134
0.323,110,128,82,139,100,169,277,137
0.338,115,132,87,161,108,187,268,140
0.361,125,136,89,171,106,207,240,145
0.383,129,146,99,205,126,216,238,151
0.398,129,156,108,219,136,228,240,165
0.421,136,213,143,252,133,230,229,168
0.443,157,299,273,445,158,228,246,179
0.46,263,395,385,560,166,199,315,246
0.481,283,417,446,616,192,216,340,260
0.503,382,486,549,715,266,234,385,319
0.518,412,486,633,770,316,319,415,329
0.541,418,486,667,906,390,347,412,325
0.563,401,517,659,919,433,391,468,277
0.578,476,598,798,1059,440,409,507,318
0.601,454,561,745,1027,436,405,498,249
0.623,438,550,716,1042,428,379,481,250
0.638,468,575,758,991,387,415,496,353
0.668,451,510,744,990,368,408,398,365
0.683,365,447,660,908,378,391,326,326
0.698,304,445,687,926,419,449,293,334
0.721,293,448,674,933,408,590,305,325
0.754,236,377,589,850,399,560,310,239
0.766,203,374,693,865,385,548,302,207
0.782,190,319,635,833,365,591,332,206
0.803,178,298,608,817,277,607,316,203
0.817,190,317,608,835,266,571,297,211
0.84,167,307,579,790,243,682,282,184
0.863,188,271,434,716,243,804,267,217
0.878,204,263,389,648,225,839,245,211
0.901,274,302,411,636,222,866,253,212
0.923,321,294,425,597,219,828,259,221
0.938,321,312,450,665,220,754,263,220
0.961,308,317,469,682,197,636,298,198
0.983,325,314,490,753,200,554,333,198
0.998,303,290,498,796,206,442,326,187
1.028,263,273,489,755,186,357,342,186
1.043,281,264,509,721,187,360,340,202
1.065,286,258,498,706,216,390,318,190
1.088,271,260,494,711,227,404,315,189
1.105,272,285,546,752,229,399,322,188
1.126,337,285,527,774,240,411,301,246
1.148,354,347,706,962,260,367,297,264
1.163,355,352,716,968,233,290,299,261
1.186,343,349,706,900,232,268,237,253
1.208,314,322,646,831,218,265,248,253
1.223,250,334,664,833,215,267,274,197
1.246,212,245,425,568,185,253,275,160
1.283,210,222,377,526,193,336,299,167
1.298,271,229,399,620,194,336,321,210
1.313,302,260,462,663,224,335,327,225
1.336,298,246,449,645,222,336,320,213
1.35,318,257,454,667,219,389,308,206
1.365,337,300,508,715,221,328,271,208
1.388,287,308,560,777,261,295,264,173
1.403,274,292,574,814,273,318,289,187
1.426,272,332,665,901,295,309,266,186
1.448,244,337,697,952,309,231,264,178
1.463,247,330,746,1044,320,259,275,186
1.485,273,352,790,1059,353,334,277,200
1.507,256,343,753,1041,350,339,240,182
1.53,233,290,665,978,353,351,236,180
1.546,231,281,623,939,364,375,244,190
1.568,201,249,511,801,373,372,307,204
1.599,178,175,320,677,311,344,319,216
1.606,176,185,325,661,302,335,305,219
1.636,211,195,311,619,298,320,312,227
1.65,216,196,311,592,286,299,303,216
1.665,219,207,316,573,257,283,258,237
1.696,213,214,310,537,251,275,308,219
1.711,212,182,280,519,255,273,333,234
1.726,193,191,279,514,243,289,345,231
1.748,218,185,268,490,233,319,367,244
1.771,255,179,255,487,234,330,348,209
1.786,288,177,272,477,223,318,297,241
1.808,291,177,233,385,226,327,363,223
1.831,284,161,196,349,215,314,357,211
1.846,264,151,226,383,193,279,336,194
1.869,223,140,322,419,214,283,363,192
1.892,181,130,306,375,218,270,363,145
1.916,266,148,305,351,174,246,291,156
1.929,299,148,314,416,187,236,280,171
1.951,307,157,290,394,201,247,293,184
1.966,304,149,181,374,170,215,281,168
1.989,370,159,220,389,179,202,294,157
2.011,332,158,216,389,182,184,274,140
2.026,352,173,228,349,163,191,301,128
2.049,492,223,314,491,159,248,311,115
2.071,513,236,332,527,183,264,308,129
2.085,526,275,332,570,170,278,278,153
2.109,538,313,384,703,214,305,359,154
2.132,528,314,415,733,243,374,367,153
2.145,417,281,391,656,236,341,351,164
2.175,466,346,434,730,240,344,359,158
2.205,443,331,451,767,255,347,359,140
2.236,449,316,437,737,224,361,300,139
2.252,474,358,478,782,205,339,346,191
2.281,480,372,482,815,228,342,344,193
2.311,439,382,503,797,214,341,336,191
2.34,522,406,522,760,200,332,341,199
2.389,525,464,578,882,235,299,325,217
2.391,516,479,571,939,260,244,263,185
2.416,520,608,680,1040,273,215,276,183
2.44,523,646,734,1068,313,268,335,246
2.468,470,671,751,1140,325,264,322,241
2.506,516,684,810,1108,346,309,320,230
2.521,528,738,844,1062,363,315,285,261
2.543,521,674,825,1071,363,317,279,260
2.574,564,642,769,1045,356,265,224,240
2.575,524,595,723,992,352,314,280,237
2.598,523,520,603,899,313,276,300,244
2.621,487,397,498,892,291,294,319,231
2.626,475,315,350,739,311,297,323,227
2.647,400,202,278,679,292,297,304,213
2.665,387,211,284,608,278,246,269,221
2.686,330,216,285,572,292,237,312,218
2.711,322,194,343,620,309,235,309,205
2.712,333,192,342,618,311,238,309,224
2.733,350,225,410,669,350,249,310,210
2.736,347,203,432,722,385,257,309,213
2.737,391,235,436,802,381,265,291,209
2.755,465,231,389,696,394,282,347,195
2.757,497,242,380,659,484,307,328,185
2.776,504,232,314,615,480,339,340,183
2.791,495,239,275,563,458,337,363,171
2.82,452,216,248,407,445,341,329,157
2.842,387,268,259,421,439,386,310,148
2.881,346,265,291,477,354,391,326,125
2.904,312,248,268,444,329,357,326,117
2.905,351,243,254,459,340,375,316,127
2.911,350,248,273,496,345,386,326,119
2.934,329,176,276,488,306,338,298,113
2.948,318,157,222,433,287,449,384,134
2.971,351,164,221,425,288,457,417,162
2.994,347,160,218,366,273,490,410,160
3.008,309,134,208,335,293,504,402,162
3.031,348,163,196,310,284,483,394,172
3.054,382,183,194,307,250,463,387,171
3.076,341,192,194,294,231,500,371,139
3.098,328,210,202,320,250,469,369,186
3.129,325,209,193,306,239,451,368,189
3.131,323,220,195,341,276,468,376,187
3.152,332,213,202,334,275,381,302,174
3.174,345,212,199,332,271,343,278,179
3.196,351,211,207,313,249,327,289,147
3.212,389,208,194,319,238,315,326,166
3.234,377,182,177,272,212,306,332,159
3.256,390,196,260,392,204,281,331,172
3.28,440,223,279,456,189,252,323,171
3.294,453,207,266,471,184,229,336,146
3.308,440,223,283,467,185,285,319,114
3.331,472,236,302,490,172,292,314,118
3.354,448,244,291,444,171,294,325,108
3.368,400,240,324,504,206,290,314,128
3.391,381,283,337,534,220,292,290,141
3.414,406,302,352,587,222,220,309,154
3.436,365,348,358,613,228,156,288,156
3.451,471,332,355,584,213,177,285,161
3.473,525,361,325,533,194,233,323,162
3.496,512,335,333,509,205,319,314,154
3.51,595,350,340,495,201,324,318,200
3.541,631,394,373,555,196,335,343,243
3.565,547,412,449,729,284,365,339,238
3.593,515,384,492,772,309,370,323,229
3.623,548,386,537,835,329,316,361,231
3.645,486,381,558,870,330,336,341,189
3.678,479,303,540,822,344,332,347,138
3.702,489,312,465,703,301,278,340,138
3.728,491,300,434,635,308,239,341,147
3.753,493,326,385,572,276,319,349,190
3.788,433,417,548,654,318,290,332,199
3.803,391,416,564,708,328,314,309,196
3.833,415,396,583,740,327,355,294,200
3.856,494,392,598,818,298,359,308,196
3.888,485,370,587,800,333,274,252,162
3.91,546,260,456,773,297,288,277,189
3.938,563,287,495,726,303,266,269,228
3.961,544,303,501,764,305,234,284,247
3.997,453,334,532,742,332,274,269,243
4.021,440,329,551,849,397,326,267,234
4.042,362,294,501,788,402,331,246,202
4.067,375,244,477,795,376,345,247,164
4.096,438,210,430,727,373,358,271,156
4.133,489,150,347,681,449,324,277,173
4.148,489,160,346,645,365,271,288,172
4.171,520,198,380,703,362,262,298,178
4.186,556,241,350,777,380,259,295,230
4.201,490,237,360,840,389,223,284,215
4.223,438,236,377,824,309,201,276,198
4.246,461,242,365,743,311,244,292,220
4.269,454,227,358,744,315,244,279,221
4.276,374,168,325,662,342,249,281,154
4.292,397,196,334,613,341,261,258,157
4.294,400,228,334,643,326,271,256,187
4.298,375,218,355,821,341,267,249,184
4.315,337,200,321,801,342,276,281,176
4.317,316,204,315,773,290,318,280,173
4.319,317,176,287,725,271,338,275,173
4.32,419,176,252,675,235,357,322,167
4.329,440,181,200,455,201,376,338,155
4.336,431,180,183,341,215,383,316,161
4.343,458,173,180,325,232,360,316,180
4.367,427,174,181,312,246,330,339,174
4.436,302,129,189,328,255,293,279,159
4.445,265,102,164,294,283,275,272,150
4.447,287,116,177,251,277,283,292,158
4.465,292,144,221,437,319,298,274,156
4.487,371,157,214,429,319,314,285,154
4.493,360,208,228,436,345,416,258,162
4.516,378,227,235,434,336,556,319,152
4.54,383,228,305,400,304,661,420,146
4.563,371,266,374,364,277,699,424,139
4.583,322,274,383,402,300,725,435,149
4.598,348,259,425,432,243,725,439,136
4.613,433,271,426,439,233,698,420,227
4.636,478,285,395,450,229,668,349,261
4.658,526,266,360,556,254,683,352,266
4.673,572,261,365,603,238,733,373,286
4.696,568,260,314,641,238,696,389,294
4.718,537,235,332,715,237,645,336,247
4.733,545,238,327,746,226,576,310,216
4.758,522,245,317,701,233,520,326,221
4.78,455,277,386,695,263,421,324,188
4.808,560,361,521,843,256,436,332,189
4.838,523,370,523,793,262,426,353,250
4.861,515,370,524,815,287,433,371,254
4.907,521,454,564,832,268,432,355,258
4.913,578,454,526,809,216,447,364,293
4.951,518,484,494,881,249,414,351,299
4.973,584,494,503,917,268,414,390,239
4.999,548,499,485,889,266,421,435,256
5.02,548,453,475,837,275,406,484,245
5.051,521,434,485,834,306,356,446,210
5.074,465,321,395,587,309,334,451,195
5.101,410,301,391,587,314,323,421,201
5.123,474,327,405,598,299,358,368,177
5.162,472,293,339,596,324,361,319,177
5.182,501,295,328,628,325,370,327,174
5.205,517,328,387,675,338,419,312,167
5.243,505,343,378,629,325,396,314,151
5.258,442,298,402,588,337,347,304,138
5.288,455,280,405,575,311,372,317,167
5.311,430,272,385,521,352,418,333,162
5.341,431,300,403,469,318,407,333,166
5.363,416,275,392,431,329,437,337,179
5.393,458,260,361,410,319,452,332,171
5.416,411,248,359,449,328,446,308,144
5.446,385,254,377,484,297,406,294,136
5.469,387,190,315,442,398,393,356,136
5.486,365,195,300,473,392,369,348,122
5.488,304,191,300,548,436,336,377,143
5.509,307,192,310,536,449,312,369,167
5.511,292,174,305,492,428,353,363,172
5.512,332,144,317,531,395,322,315,173
5.532,345,117,323,526,421,291,315,182
5.533,346,123,314,425,377,298,305,240
5.534,384,137,300,413,352,285,321,231
5.546,370,166,314,445,368,280,316,235
5.547,324,163,252,319,351,310,291,228
5.551,356,169,231,305,314,305,266,224
5.567,364,164,233,347,303,333,237,149
5.569,322,147,232,400,330,344,213,142
5.589,328,109,178,384,331,299,216,134
5.596,381,101,172,399,289,289,202,145
5.618,333,113,196,450,366,318,236,141
5.641,336,123,185,452,402,367,259,142
5.663,339,123,180,383,395,391,266,130
5.694,367,136,172,359,371,398,276,127
5.708,326,154,205,385,378,381,275,126
5.718,466,141,209,316,306,388,237,149
5.747,547,147,212,261,246,356,226,152
5.769,574,186,245,396,244,323,220,168
5.776,581,192,278,473,273,338,227,176
5.8,578,184,261,453,313,365,270,192
5.821,528,225,245,454,303,398,278,184
5.836,508,229,291,522,328,384,282,173
5.867,495,242,278,465,312,435,294,160
5.889,506,281,306,436,298,477,289,169
5.896,566,292,356,535,291,466,316,168
5.918,575,290,377,553,296,420,337,189
5.941,665,305,452,581,274,393,327,198
5.956,664,290,475,687,302,340,318,207
5.978,660,253,474,764,303,324,323,204
6.001,779,286,501,818,259,322,286,218
6.016,826,318,509,869,250,316,288,195
6.038,734,327,463,830,249,408,334,194
6.061,859,332,479,780,207,410,338,210
6.085,853,358,467,745,200,363,335,208
6.128,721,420,474,682,202,357,327,186
6.151,679,401,552,705,211,380,307,186
6.182,764,465,633,815,275,305,283,219
6.198,657,495,626,799,294,312,271,209
6.22,704,495,652,851,314,305,264,209
6.25,676,469,616,821,357,297,251,198
6.273,660,461,538,741,393,311,248,193
6.301,575,391,430,661,356,338,198,166
6.324,566,343,421,647,356,342,202,149
6.361,528,314,356,487,354,363,201,136
6.382,578,250,332,470,323,389,234,150
6.437,640,273,334,571,316,361,233,175
6.44,678,262,322,581,320,339,264,167
6.462,713,286,337,646,323,324,279,169
6.481,694,290,356,713,309,301,264,173
6.513,657,292,432,794,369,281,233,166
6.535,600,314,482,724,353,289,232,155
6.563,516,321,482,712,363,270,245,166
6.586,470,299,467,709,383,304,262,184
6.616,497,302,459,656,426,311,267,183
6.64,530,292,410,606,409,301,275,189
6.668,495,229,345,613,405,316,291,215
6.701,509,246,366,614,399,301,272,217
6.702,502,256,358,557,401,261,235,204
6.706,458,249,375,544,388,307,262,199
6.723,421,239,352,486,352,299,263,214
6.724,387,231,334,470,348,285,279,175
6.729,394,178,274,384,387,316,260,146
6.747,320,149,269,353,392,338,276,139
6.748,336,140,233,400,361,312,315,144
6.768,308,119,215,385,366,324,318,125
6.769,385,131,211,390,363,326,301,120
6.77,359,135,214,400,333,314,300,123
6.773,364,125,173,377,276,285,293,122
6.789,339,119,171,327,272,321,296,118
6.82,350,122,182,313,308,328,290,129
6.823,299,99,171,279,315,327,284,149
6.843,316,81,130,251,289,314,308,154
6.88,309,84,130,239,298,316,298,152
6.882,362,73,108,214,305,268,259,153
6.901,405,65,97,175,281,329,247,135
6.924,425,98,119,174,259,350,239,128
6.939,410,117,136,173,257,405,210,120
6.961,462,156,141,173,263,409,239,127
6.992,491,190,183,226,254,463,218,151
6.998,496,193,185,285,210,449,255,143
7.021,498,183,187,298,222,455,279,132
7.044,485,250,198,306,210,414,335,131
7.058,465,233,216,303,202,415,347,129
7.081,494,251,246,275,193,393,361,122
7.105,528,256,246,266,181,458,381,147
7.118,546,258,244,309,193,455,389,156
7.149,591,243,298,414,211,557,350,167
7.164,600,266,296,475,194,568,319,165
7.178,610,260,282,479,201,571,289,153
7.201,707,410,299,470,202,540,339,171
7.224,758,444,346,466,180,525,318,217
7.246,748,432,306,407,176,475,338,232
7.268,743,437,418,484,216,457,440,245
7.298,713,483,434,514,212,503,464,249
7.321,566,364,422,625,284,453,398,222
7.351,519,364,449,646,342,536,444,194
7.377,532,373,470,678,363,497,466,174
7.405,563,387,395,684,383,511,383,177
7.428,565,327,365,703,409,444,353,171
7.456,604,327,380,640,373,450,348,175
7.48,595,307,340,680,331,373,297,148
7.516,617,292,307,657,456,347,221,139
7.542,593,243,300,588,431,328,206,114
7.568,641,260,345,574,432,302,229,135
7.593,700,306,381,599,436,316,238,137
7.617,665,302,375,521,433,331,219,149
7.643,660,361,435,574,308,453,226,195
7.666,675,390,431,572,311,561,225,212
7.707,652,363,401,588,310,595,234,208
7.718,624,368,369,554,360,593,237,204
7.748,637,387,383,602,374,562,250,207
7.773,585,332,318,537,348,472,251,177
7.809,568,295,311,539,406,348,252,155
7.823,571,290,311,527,410,311,237,140
7.853,525,248,301,487,369,275,244,201
7.878,519,209,270,458,384,264,224,204
7.906,579,220,271,457,433,265,207,193
7.936,553,232,264,464,414,270,217,200
7.958,494,240,303,480,485,226,224,207
7.983,445,239,318,517,515,268,207,158
8.018,440,215,324,559,513,301,235,159
8.019,414,174,333,576,524,325,266,157
8.026,448,172,361,616,537,297,298,170
8.041,439,164,367,618,471,309,323,166
8.049,435,129,352,626,474,311,327,177
8.05,442,143,337,603,478,329,329,161
8.064,402,155,350,600,469,292,316,180
8.071,380,148,321,544,451,299,274,161
8.072,341,158,304,601,440,311,217,152
8.095,358,197,304,565,389,280,214,127
8.096,466,231,298,528,381,238,233,130
8.097,456,228,284,524,343,327,242,122
8.11,446,219,278,539,326,321,246,122
8.111,533,207,234,413,317,342,298,142
8.112,568,222,221,407,380,381,306,157
8.131,486,189,221,404,382,387,263,155
8.153,495,179,184,408,370,325,251,144
8.216,509,181,176,340,363,357,261,147
8.219,482,188,169,321,351,315,243,139
8.231,442,147,166,324,296,267,243,126
8.233,402,173,144,310,266,343,245,115
8.244,426,188,137,240,259,373,236,115
8.267,444,197,143,250,240,371,224,120
8.289,537,306,146,256,251,372,228,137
8.305,627,373,174,257,229,367,201,140
8.334,646,365,211,295,255,281,224,143
8.349,643,364,214,328,247,277,226,146
8.364,694,484,250,353,251,233,273,174
8.387,676,437,251,356,242,242,248,182
8.409,593,382,239,358,239,241,274,185
8.423,592,424,257,332,235,243,255,193
8.447,663,432,271,355,281,200,299,204
8.469,602,305,231,349,262,211,340,185
8.484,600,336,235,374,288,206,333,161
8.506,649,333,278,400,300,223,327,155
8.528,649,319,312,458,297,213,376,145
8.543,709,350,324,509,270,210,374,149
8.566,732,397,461,641,300,202,298,152
8.604,744,390,513,727,298,190,316,159
8.605,701,392,507,730,303,171,310,154
8.633,711,516,510,733,291,170,273,161
8.657,649,507,503,676,278,146,234,140
8.693,637,470,403,628,277,153,243,135
8.72,526,452,434,548,260,163,227,140
8.746,593,464,420,526,240,158,238,143
8.77,603,316,412,521,237,150,220,140
8.791,513,308,416,525,246,241,233,164
8.82,486,335,457,566,214,242,217,155
8.843,562,359,381,544,203,239,216,153
8.892,503,374,422,603,238,243,228,226
8.911,456,356,410,584,235,253,260,244
8.934,446,346,407,592,244,187,245,235
8.956,477,314,362,463,298,188,282,237
8.978,517,274,386,505,318,199,314,249
9.001,496,240,379,475,312,197,300,186
9.031,502,209,370,445,308,195,281,163
9.063,512,218,406,545,303,180,285,153
9.084,524,251,412,627,260,182,253,154
9.113,390,258,424,648,287,168,202,137
9.136,368,246,407,693,332,180,180,162
9.159,360,255,386,694,334,190,174,174
9.174,398,236,359,640,338,190,198,171
9.175,337,181,331,586,333,227,226,170
9.181,333,169,255,523,313,261,276,163
9.19,351,165,227,461,300,257,321,173
9.196,340,159,220,448,310,249,323,165
9.204,262,165,175,394,313,261,307,175
9.211,228,172,165,333,327,240,293,166
9.218,251,174,169,310,338,204,244,165
9.227,246,166,140,219,294,355,197,120
9.233,239,157,135,202,291,429,178,103
9.248,225,149,131,197,300,431,213,87
9.271,222,143,124,252,314,429,227,97
9.288,173,144,132,251,318,447,234,91
9.308,124,148,142,244,316,386,225,110
9.331,152,175,136,249,336,397,271,124
9.348,231,235,146,373,324,421,239,142
9.416,258,264,157,380,310,421,243,144
9.419,269,281,151,372,274,410,235,141
9.421,272,280,173,390,315,377,238,122
9.436,257,267,224,433,294,316,228,107
9.458,269,324,253,366,311,280,280,110
9.468,299,336,265,345,302,290,282,127
9.488,308,323,277,375,348,272,292,134
9.513,313,329,265,362,316,274,297,141
9.536,321,362,235,347,309,245,320,164
9.548,285,328,203,315,276,257,282,149
9.571,248,304,228,318,289,249,265,130
9.588,247,315,226,379,292,288,265,133
9.608,264,331,238,385,305,294,270,159
9.631,306,306,266,426,295,277,223,146
9.648,343,288,287,458,303,270,215,148
9.668,336,322,282,474,276,281,213,161
9.69,390,460,308,464,207,258,204,156
9.707,391,479,317,460,168,224,204,139
9.735,426,507,294,410,183,246,247,160
9.75,400,505,336,468,283,410,282,159
9.773,402,533,418,566,307,413,283,147
9.788,387,550,687,794,339,425,280,169
9.811,409,540,701,854,385,435,302,181
9.828,383,540,710,867,378,441,256,160
9.849,436,536,682,840,306,285,233,159
9.905,464,537,627,761,285,269,250,163
9.907,450,400,317,535,287,245,258,149
9.91,440,374,278,502,245,344,253,127
9.931,416,333,276,510,268,364,248,117
9.954,358,319,377,586,351,396,242,121
9.984,340,209,412,603,361,399,221,123
10.023,309,208,414,618,340,419,230,113
10.044,291,226,488,745,351,406,209,104
10.09,353,270,586,804,398,404,209,130
10.092,393,352,572,805,378,388,238,161
10.113,408,433,650,942,399,391,235,238
10.134,432,459,730,1008,455,522,239,262
10.141,447,495,793,995,506,525,237,275
10.163,414,496,775,1030,502,522,241,275
10.18,360,444,774,1061,510,525,220,260
10.195,325,378,707,957,533,561,249,220
10.218,345,349,618,883,504,480,230,206
10.239,409,295,469,821,487,437,229,219
10.247,377,261,385,716,463,477,231,209
10.269,381,257,338,601,425,542,221,203
10.285,373,250,358,668,378,531,206,169
10.3,318,238,420,711,427,543,202,168
10.321,227,294,427,660,397,572,200,158
10.336,241,289,410,633,397,555,190,162
10.359,245,278,410,638,396,518,189,162
10.373,243,265,359,540,397,589,183,157
10.39,258,330,244,429,336,558,198,134
10.411,217,276,212,399,307,535,201,106
10.434,192,261,193,390,288,508,203,103
10.449,207,254,155,346,298,647,211,113
10.473,204,256,184,421,309,563,193,118
10.495,193,154,182,405,321,561,192,133
10.516,226,131,175,378,350,551,189,144
10.531,252,184,198,398,371,632,226,146
10.554,306,184,204,407,348,555,232,140
10.569,315,188,169,318,377,567,254,139
10.594,316,178,163,287,344,563,272,122
10.622,299,242,195,309,302,573,264,113
10.629,275,211,202,314,276,505,236,104
10.659,170,232,215,295,269,406,219,97
10.69,149,233,214,268,197,412,221,110
10.692,160,257,236,317,204,402,210,112
10.713,142,224,235,314,223,378,214,112
10.735,242,275,251,346,225,364,227,106
10.748,258,278,240,368,243,391,236,148
10.771,295,282,234,365,235,457,208,136
10.793,321,274,237,383,266,474,176,152
10.808,425,285,227,395,261,491,170,166
10.831,407,251,239,378,266,482,160,170
10.862,424,256,251,379,288,489,161,134
10.869,431,258,284,384,281,426,188,136
10.891,477,328,308,380,246,385,208,122
10.914,449,383,319,427,236,384,211,109
10.928,489,387,324,421,216,430,225,124
10.951,477,376,403,529,251,412,216,128
10.974,614,402,416,549,281,385,213,170
10.996,668,355,425,620,299,411,196,213
11.011,656,289,481,761,346,503,220,209
11.034,660,309,503,793,365,488,198,200
11.056,744,338,555,874,330,448,212,216
11.079,654,373,543,875,309,442,224,222
11.103,573,372,534,822,307,420,223,184
11.125,576,383,527,718,278,276,198,180
11.157,584,376,536,756,265,314,228,208
11.175,535,370,435,645,242,372,237,204
11.222,499,314,482,717,248,405,220,169
11.245,511,315,518,795,262,419,231,168
11.268,551,318,503,812,277,465,225,184
11.299,547,316,506,793,277,414,217,166
11.314,542,299,501,778,328,387,199,152
11.336,698,314,462,708,398,419,192,159
11.363,682,332,497,775,394,415,206,168
11.402,671,314,495,741,372,386,235,149
11.423,646,347,490,784,367,406,222,132
11.447,601,367,556,895,346,415,219,141
11.472,428,370,632,1003,322,356,216,137
11.499,458,350,615,928,325,404,227,128
11.521,513,360,601,917,333,383,213,146
11.551,484,317,560,850,338,357,214,165
11.574,481,285,493,720,340,330,207,151
11.604,501,266,427,589,308,410,213,151
11.63,493,268,407,602,311,409,182,148
11.656,399,229,392,604,338,441,176,162
11.678,490,242,405,583,324,465,185,157
11.696,592,273,393,543,307,496,235,185
11.697,559,249,325,498,293,514,255,176
11.702,529,228,224,372,291,530,266,176
11.717,506,239,220,338,285,530,272,146
11.718,440,201,166,323,325,518,265,136
11.724,338,147,131,310,324,505,237,112
11.739,327,151,173,333,340,524,241,115
11.741,326,160,280,561,338,511,224,123
11.747,331,132,285,566,307,499,203,123
11.754,493,190,286,555,286,500,230,140
11.762,469,193,290,566,306,587,246,145
11.784,496,202,364,636,303,502,236,148
11.791,496,205,316,509,290,506,240,140
11.814,523,278,310,485,305,484,242,135
11.836,418,256,309,480,289,475,217,116
11.851,426,256,308,463,257,357,207,99
11.874,412,245,191,343,254,350,191,89
11.896,412,234,141,247,238,263,210,126
11.911,409,173,128,246,222,323,241,145
11.933,404,164,156,262,209,301,241,144
11.957,389,164,166,264,205,283,234,151
11.988,410,158,178,295,171,312,255,158
12.012,446,176,203,318,172,363,262,143
12.016,513,188,238,344,164,387,246,133
12.039,531,264,232,361,169,417,260,129
12.054,581,273,247,472,190,419,287,131
12.076,583,319,241,428,187,453,287,150
12.099,580,316,216,411,194,466,275,149
12.114,548,302,271,529,227,415,267,147
12.136,534,279,346,585,237,426,270,162
12.159,583,329,435,665,232,436,242,159
12.173,585,289,449,704,235,532,271,141
12.196,647,298,481,738,285,530,289,170
12.219,726,344,471,701,272,551,323,174
12.242,740,360,481,778,286,572,316,177
12.256,662,316,437,768,328,567,309,173
12.281,750,359,444,834,340,448,299,190
12.309,712,439,505,883,318,403,307,160
12.346,633,446,551,912,338,365,288,170
12.376,660,429,538,849,364,325,276,166
12.408,707,427,555,849,364,370,274,171
12.423,619,482,609,841,362,351,241,161
12.445,719,448,603,876,342,345,215,164
12.468,683,409,544,823,332,368,211,142
12.496,608,399,519,813,288,332,219,130
12.519,566,497,655,910,253,307,214,126
12.567,609,417,626,876,256,291,238,132
12.588,456,371,564,763,289,354,235,134
12.608,466,382,564,809,290,332,216,142
12.633,493,367,558,797,315,325,201,139
12.653,503,236,417,719,306,295,265,139
12.677,494,241,390,690,281,310,233,128
12.714,501,244,418,749,251,262,222,118
12.736,508,230,482,783,253,275,240,114
12.768,471,254,533,868,243,336,265,125
12.789,598,291,539,875,255,402,239,160
12.811,582,380,669,992,304,418,262,169
12.841,598,377,674,983,330,442,275,172
12.865,619,389,654,972,366,478,282,171
12.901,635,382,640,897,391,532,256,159
12.916,499,337,608,797,449,515,284,124
12.925,482,255,465,651,428,529,313,115
12.931,427,257,434,608,423,518,306,137
12.939,480,228,383,537,399,593,296,136
12.946,479,239,362,523,378,566,302,143
12.954,494,252,302,482,293,552,250,145
12.97,487,233,257,480,312,531,200,138
12.972,536,225,260,499,343,557,189,122
12.976,428,256,271,490,369,505,196,122
12.985,423,242,236,486,357,467,214,123
12.993,402,226,218,463,375,464,234,117
12.999,372,224,201,435,406,487,225,120
13.007,400,224,193,388,390,487,229,106
13.024,394,179,173,310,347,467,243,104
13.036,422,202,124,267,354,479,224,97
13.059,436,208,144,322,393,493,204,94
13.082,466,184,175,319,341,500,228,80
13.095,411,179,166,326,312,451,226,82
13.119,408,175,157,334,302,395,191,82
13.141,350,133,160,333,285,343,185,78
13.164,373,136,163,291,207,285,176,85
13.186,363,226,143,241,194,195,165,89
13.21,395,245,185,288,191,291,166,108
13.216,517,333,282,384,193,328,185,115
13.239,618,352,364,495,200,361,215,128
13.262,691,399,423,638,211,428,232,138
13.276,695,371,495,722,218,436,227,134
13.299,711,429,570,831,222,366,259,128
13.322,670,399,562,808,220,360,262,124
13.337,704,396,540,795,217,338,243,124
13.359,634,373,496,699,191,267,283,105
13.382,640,392,433,617,211,281,293,111
13.396,673,357,319,490,223,274,271,133
13.419,653,394,264,462,249,251,279,137
13.442,595,457,299,513,262,256,304,142
13.456,669,460,299,496,259,241,258,161
13.479,683,451,339,552,254,267,246,158
13.501,639,451,429,617,263,294,247,141
13.524,671,405,435,663,259,295,225,144
13.553,629,370,486,741,287,282,214,138
13.575,584,364,555,877,321,276,247,131
13.605,660,344,534,855,349,233,253,152
13.644,696,398,619,903,333,240,264,156
13.673,752,500,698,1018,334,227,294,199
13.691,786,504,704,996,321,266,310,213
13.713,804,523,718,1005,331,265,278,227
13.741,742,537,733,1003,308,250,269,222
13.767,702,482,629,986,352,225,260,232
13.809,636,382,578,872,341,211,250,206
13.816,578,342,485,774,340,178,210,187
13.856,533,298,501,649,375,185,219,158
13.878,532,271,490,646,402,216,222,165
13.906,526,302,468,498,381,240,233,143
13.929,508,272,417,445,388,277,206,124
13.951,501,261,454,472,388,304,214,120
13.981,467,276,363,527,363,316,203,121
14.004,544,286,415,630,352,310,190,103
14.034,520,246,451,705,357,290,157,105
14.056,509,241,465,704,376,250,148,114
14.086,591,242,445,689,392,201,180,121
14.108,705,212,441,631,400,196,202,141
14.139,613,199,377,537,402,189,252,138
14.162,614,201,324,446,395,184,272,138
14.168,618,226,333,482,384,189,277,163
14.176,548,214,341,553,364,191,249,166
14.183,358,202,282,513,359,242,236,150
14.191,504,260,262,490,326,249,229,180
14.199,539,250,245,457,325,291,218,212
14.206,508,251,214,451,323,394,213,190
14.214,505,275,177,332,333,400,240,194
14.222,526,292,177,326,282,364,261,202
14.229,374,232,181,327,368,353,248,177
14.236,318,240,270,497,374,325,236,131
14.244,358,230,281,478,370,198,247,120
14.251,445,217,277,468,366,207,248,104
14.259,431,209,278,464,366,292,234,108
14.283,441,225,275,456,294,308,235,98
14.312,444,211,197,364,266,309,236,95
14.321,412,198,170,386,269,304,237,95
14.344,384,187,145,382,242,288,276,95
14.372,405,208,153,388,229,258,283,91
14.428,428,221,170,427,210,253,283,96
14.43,486,228,170,361,210,249,301,123
14.441,507,277,158,297,198,327,298,131
14.446,494,292,163,321,195,473,302,137
14.464,473,265,169,403,240,544,372,132
14.484,515,275,220,486,243,567,364,138
14.506,487,329,225,497,236,612,360,118
14.523,587,330,338,554,224,597,365,125
14.551,606,327,360,634,271,518,325,131
14.568,679,387,413,683,255,461,230,133
14.583,671,438,483,771,260,521,227,140
14.604,672,438,537,946,288,522,216,150
14.626,675,417,509,935,313,544,228,142
14.643,705,461,551,932,297,570,213,144
14.664,703,454,557,894,325,564,226,144
14.686,698,424,529,779,336,491,220,139
14.703,810,454,525,582,329,483,242,174
14.724,747,469,527,618,306,445,224,186
14.746,687,434,508,634,284,400,239,193
14.769,693,417,474,642,239,358,246,189
14.801,665,423,454,644,211,450,312,183
14.823,526,376,431,704,209,414,320,144
14.851,589,442,398,663,231,438,334,134
14.874,598,421,357,592,327,429,321,117
14.904,584,414,418,632,344,442,323,125
14.941,591,400,448,692,361,370,300,125
14.966,571,398,599,737,361,365,267,129
14.986,529,298,610,732,407,479,258,137
15.013,580,438,696,832,440,498,334,151
15.046,641,468,699,813,458,564,326,161
15.063,676,450,658,763,463,545,288,172
15.091,709,457,639,717,469,560,331,202
15.116,692,458,635,725,417,452,337,199
15.139,734,411,545,618,360,445,261,197
15.166,646,368,494,587,364,354,266,187
15.196,613,386,541,652,377,358,283,180
15.219,561,348,372,601,362,343,234,140
15.256,521,351,374,633,387,330,212,125
15.271,479,254,362,632,363,297,247,111
15.303,463,339,399,677,371,284,247,104
15.327,427,310,336,619,362,336,266,108
15.331,528,309,317,587,376,305,272,131
15.348,603,318,296,543,389,408,275,152
15.35,516,309,297,511,401,409,244,147
15.354,494,193,215,441,378,406,218,146
15.362,511,172,209,475,354,355,195,153
15.37,538,173,211,447,352,354,193,146
15.377,456,118,191,468,316,266,192,134
15.392,444,131,172,466,271,267,215,135
15.393,438,127,163,426,250,284,225,134
15.399,482,137,128,329,279,274,219,124
15.406,408,132,114,352,311,356,208,112
15.421,469,158,112,393,317,328,199,105
15.444,650,237,172,413,316,430,207,152
15.466,690,233,212,470,303,525,236,162
15.481,702,244,231,535,286,558,240,163
15.504,760,303,238,533,265,530,241,190
15.526,748,299,246,527,272,520,253,194
15.543,619,241,226,569,267,452,247,165
15.566,609,292,210,520,274,331,234,163
15.596,598,301,199,450,246,288,246,164
15.617,463,251,190,429,213,334,277,154
15.624,447,258,179,341,189,343,284,154
15.646,454,260,172,242,219,324,262,150
15.661,480,269,169,457,205,323,261,146
15.683,451,263,177,471,213,306,249,143
15.705,560,304,190,510,245,217,211,113
15.728,607,355,212,513,240,207,190,111
15.743,595,381,208,539,221,199,201,121
15.765,603,392,213,407,229,175,206,164
15.789,624,415,221,418,245,239,225,198
15.804,660,403,300,510,241,279,284,206
15.826,611,384,358,666,263,276,300,217
15.849,631,511,367,646,259,293,304,219
15.879,587,488,374,644,284,371,291,204
15.901,591,489,387,644,271,345,263,182
15.931,479,609,413,659,240,314,237,175
15.956,532,591,448,637,233,306,247,175
15.984,570,513,559,753,261,307,248,170
16.008,588,540,632,858,255,246,247,185
16.01,624,557,652,888,265,266,259,245
16.012,609,457,666,883,305,265,240,260
16.029,579,484,679,882,310,270,228,249
16.051,549,457,588,786,307,260,215,250
16.076,572,448,554,807,334,221,217,225
16.106,513,414,542,824,345,195,197,159
16.142,585,388,491,759,334,194,179,146
16.149,592,400,420,743,361,231,173,151
16.195,599,456,417,773,360,235,184,161
16.218,601,442,385,673,341,267,188,168
16.238,575,440,382,684,329,256,190,159
16.261,552,460,426,818,367,254,224,147
16.284,579,440,448,761,352,223,208,163
16.321,669,443,542,842,373,218,204,171
16.336,622,418,519,829,387,180,217,166
16.368,642,423,549,840,398,176,228,160
16.391,589,381,546,719,364,232,215,173
16.426,521,357,534,739,338,274,218,155
16.449,352,297,436,609,328,268,247,125
16.471,382,303,453,663,309,284,235,118
16.496,338,286,395,570,330,288,345,128
16.531,350,283,400,592,325,234,355,108
16.554,401,284,360,559,336,254,370,112
16.556,431,220,397,596,362,294,354,119
16.571,471,210,371,493,412,415,352,126
16.573,481,238,362,486,387,426,250,119
16.577,479,214,248,422,387,439,233,129
16.584,560,257,387,454,405,417,223,133
16.591,513,277,408,456,403,443,215,138
16.601,462,277,419,468,333,330,217,130
16.606,461,297,416,441,327,326,233,138
16.622,459,298,431,436,313,352,226,136
16.629,417,261,315,379,267,417,214,127
16.644,487,239,227,277,193,412,238,132
16.666,540,269,293,393,181,415,244,171
16.688,540,204,350,427,171,454,218,166
16.711,541,230,427,498,179,442,219,173
16.726,514,223,432,516,187,371,247,188
16.751,515,238,445,556,179,320,229,184
16.773,482,350,527,602,189,323,220,165
16.789,534,381,574,676,240,251,233,178
16.809,541,367,533,661,253,221,254,185
16.831,560,408,529,640,254,226,231,169
16.847,507,463,539,613,246,215,232,171
16.869,497,370,423,492,250,231,225,159
16.891,505,358,317,369,203,246,215,162
16.906,520,416,291,340,179,243,199,161
16.929,454,389,287,327,180,227,250,162
16.951,543,329,302,346,229,226,249,158
16.966,536,320,283,325,229,186,255,155
16.989,584,329,307,332,235,162,269,156
17.011,631,363,350,334,227,176,282,150
17.034,667,360,359,349,239,202,239,155
17.064,637,367,335,398,213,202,254,154
17.086,638,385,345,446,203,202,258,180
17.118,648,377,341,584,203,201,244,240
17.143,587,320,323,651,255,277,211,241
17.169,558,324,416,789,373,284,274,250
17.185,618,340,549,837,393,286,286,255
17.186,676,342,613,890,400,284,309,254
17.191,599,323,610,862,432,291,305,188
17.215,667,306,648,848,412,210,315,180
17.229,671,307,603,795,316,188,271,171
17.26,598,283,503,741,287,183,266,173
17.281,621,261,412,651,283,175,232,170
17.306,660,354,403,580,285,159,229,170
17.33,615,348,350,557,287,234,217,162
17.351,601,340,341,522,285,225,189,151
17.374,601,324,305,498,303,235,149,139
17.416,526,327,324,513,305,252,184,128
17.439,467,278,427,710,278,248,190,116
17.456,414,246,404,709,265,185,226,141
17.486,437,243,390,695,263,192,226,160
17.506,500,257,418,746,289,187,238,165
17.536,480,311,480,828,333,187,239,159
17.562,494,275,386,739,307,197,261,162
17.589,610,287,394,730,322,187,234,142
17.611,588,283,419,720,330,202,236,130
17.641,546,260,388,657,311,208,231,119
17.666,544,189,298,544,282,217,211,110
17.694,499,176,312,416,317,226,203,116
17.725,396,182,321,361,331,229,197,111
17.732,384,175,290,303,367,210,194,98
17.733,377,184,292,310,375,205,200,97
17.74,367,172,270,277,360,184,208,102
17.757,365,175,236,269,345,199,219,94
17.758,297,153,171,277,315,192,221,106
17.761,335,235,161,312,351,245,236,110
17.778,313,240,133,329,352,243,234,109
17.779,381,281,147,329,348,252,227,101
17.792,380,296,155,333,344,244,228,101
17.822,379,340,167,336,355,269,248,104
17.829,356,291,158,283,283,373,259,97
17.852,476,296,161,217,244,370,260,104
17.874,440,267,151,200,262,378,254,115
17.896,458,240,144,216,284,372,222,113
17.919,460,199,156,272,297,383,204,98
17.941,518,202,168,289,270,249,215,101
17.948,465,233,171,289,267,260,198,105
17.972,460,248,184,306,297,241,194,105
18.002,490,277,202,311,261,233,205,107
18.011,540,288,192,264,264,194,219,125
18.032,487,296,183,244,266,198,180,123
18.055,410,262,177,259,273,231,215,114
18.069,387,292,180,250,233,290,261,109
18.092,453,307,179,232,237,298,273,129
18.114,400,296,163,228,191,294,257,114
18.128,446,319,190,275,198,291,281,122
18.151,503,367,194,291,203,271,271,136
18.174,512,349,241,316,186,245,240,146
18.188,473,331,244,353,175,238,213,141
18.213,470,356,262,417,201,240,219,145
18.235,460,356,272,461,208,229,229,135
18.249,438,327,302,480,220,209,226,122
18.279,549,313,287,507,232,151,219,115
18.316,557,334,329,525,240,143,254,122
18.331,584,306,357,567,234,143,246,117
18.363,572,287,400,585,230,138,215,127
18.395,591,284,397,586,240,133,234,140
18.415,544,318,484,647,280,131,259,138
18.436,487,275,469,676,299,155,247,128
18.437,496,257,441,610,299,203,247,130
18.461,484,288,399,545,310,240,242,124
18.485,489,285,428,582,323,263,247,114
18.504,449,246,369,604,365,302,228,115
18.534,457,247,377,597,371,297,215,119
18.571,422,264,388,627,368,266,213,130
18.593,476,246,395,648,375,236,221,143
18.616,445,248,356,605,345,217,181,146
18.64,406,256,326,471,254,155,157,139
18.669,391,261,301,402,248,152,152,142
18.693,381,247,294,401,256,158,160,138
18.714,332,236,332,416,243,152,143,130
18.743,364,210,337,439,268,148,216,123
18.768,383,188,308,441,453,177,277,127
18.796,373,179,308,447,468,177,272,111
18.826,401,200,298,433,484,169,285,96
18.849,483,192,237,400,486,170,298,103
18.879,494,202,219,354,483,166,264,106
18.901,512,246,260,421,335,141,201,119
18.908,533,256,251,417,346,169,215,126
18.917,544,260,246,360,316,198,195,136
18.923,474,244,229,371,315,215,196,134
18.932,398,227,222,395,308,267,205,128
18.939,357,177,173,361,338,299,245,116
18.946,392,204,216,378,297,288,238,126
18.955,378,212,327,538,336,281,241,135
18.961,383,207,327,514,340,277,230,136
18.978,382,206,321,488,345,238,236,138
18.979,390,207,309,456,295,205,219,139
19.0,358,178,273,430,305,196,211,127
19.015,317,134,144,265,278,180,207,105
19.037,279,164,153,300,295,181,219,88
19.051,289,165,156,332,295,170,193,94
19.075,288,179,205,344,309,163,183,97
19.097,326,166,203,330,299,222,188,92
19.111,334,154,186,273,335,227,187,94
19.135,383,152,173,227,297,221,180,95
19.157,366,164,174,173,331,235,215,94
19.171,391,185,115,124,325,268,224,100
19.202,338,204,113,173,308,243,219,106
19.225,406,207,125,177,249,233,222,118
19.24,390,203,131,206,241,232,221,128
19.254,418,227,166,325,196,219,200,125
19.277,472,236,159,342,196,198,187,116
19.291,489,227,154,334,217,173,211,110
19.315,438,234,152,355,259,180,229,114
19.337,544,238,169,447,285,175,268,122
19.351,574,235,171,393,274,168,271,139
19.375,539,211,196,387,327,127,264,144
19.397,577,210,223,390,319,135,255,152
19.411,593,312,281,411,288,128,241,146
19.435,477,344,321,393,264,133,179,136
19.457,482,390,342,405,353,126,159,123
19.471,504,470,418,609,336,143,165,120
19.494,469,495,491,732,380,139,180,116
19.517,525,453,471,716,493,152,201,118
19.54,622,501,459,690,547,163,207,117
19.562,583,497,460,696,542,167,199,116
19.592,573,425,395,576,528,155,197,112
19.616,632,415,317,449,518,142,209,122
19.662,640,493,458,626,425,131,242,124
19.664,593,429,498,666,385,108,256,132
19.685,625,439,520,663,325,159,265,141
19.712,685,477,560,646,344,167,280,154
19.734,621,462,575,701,374,177,285,149
19.78,570,380,486,582,427,198,242,160
19.802,527,412,464,546,433,218,224,158
19.826,507,348,436,544,440,217,221,147
19.85,515,331,413,636,429,225,214,143
19.871,507,366,471,599,418,227,194,154
19.891,491,380,488,638,444,248,198,150
19.922,498,332,462,638,451,233,212,154
19.953,573,356,455,631,444,220,222,169
19.974,477,334,503,546,519,223,222,172
19.996,463,308,505,609,531,221,222,156
20.028,442,274,541,609,507,224,225,147
20.051,425,280,553,601,479,228,214,135
20.079,419,295,544,604,503,246,203,123
20.086,421,319,469,596,453,249,190,114
20.095,438,306,365,478,405,267,186,120
20.101,441,297,238,370,384,254,210,107
20.108,482,286,217,468,408,280,220,110
20.117,369,241,253,471,367,260,223,100
20.124,327,164,251,443,367,261,221,87
20.132,342,160,261,464,386,244,209,76
20.139,340,146,255,502,357,234,171,72
20.155,311,152,264,372,360,200,166,75
20.158,339,153,220,353,361,193,167,84
20.178,421,176,209,338,322,184,187,104
20.198,395,162,194,278,304,192,186,103
20.216,446,173,189,195,322,200,208,118
20.237,432,156,126,226,290,199,228,128
20.259,452,147,109,205,293,240,276,126
20.275,423,119,110,202,296,231,291,117
20.296,437,114,93,194,309,249,297,129
20.335,415,119,123,276,333,244,313,118
20.338,433,124,125,239,335,253,303,103
20.359,421,145,161,263,329,208,251,97
20.396,428,178,180,276,340,204,218,98
20.398,418,196,247,357,316,184,221,82
20.417,391,197,282,330,265,182,172,88
20.439,487,284,295,371,252,170,179,101
20.456,457,275,289,373,251,179,204,109
20.476,463,278,304,418,216,276,260,116
20.499,587,306,404,457,232,271,250,150
20.521,648,309,409,542,213,260,289,166
20.536,667,370,443,593,205,261,302,183
20.558,704,399,470,689,231,275,339,185
20.581,692,425,593,879,270,185,300,188
20.597,642,460,577,880,271,195,313,166
20.618,632,481,579,859,281,199,279,172
20.641,576,405,585,890,307,195,265,147
20.656,578,407,661,912,311,179,196,150
20.681,640,389,584,756,289,236,204,150
20.702,589,337,531,766,277,252,196,147
20.724,618,344,549,755,315,267,192,124
20.749,684,367,639,785,313,274,177,141
20.771,668,360,629,833,305,308,230,133
20.802,646,436,778,1008,319,262,285,132
20.824,777,505,789,987,336,265,285,179
20.867,763,497,775,1002,309,250,288,188
20.877,713,474,726,1012,330,262,301,182
20.913,748,469,677,949,341,216,284,193
20.936,716,454,491,775,338,232,268,203
20.96,582,373,452,763,371,210,269,173
20.986,544,395,428,725,363,207,278,159
21.026,537,465,346,598,349,179,271,159
21.05,490,469,319,548,354,185,266,149
21.069,545,414,272,534,390,164,213,129
21.093,630,417,285,541,368,148,204,143
21.113,687,440,310,539,382,163,203,156
21.147,640,355,328,541,406,183,219,153
21.161,673,340,288,490,385,191,219,148
21.163,611,359,311,438,356,191,219,159
21.167,541,339,324,393,353,220,243,131
21.169,446,267,321,411,367,218,280,122
21.182,434,294,377,444,309,209,258,113
21.184,351,295,434,498,309,189,231,113
21.211,342,283,453,546,277,192,254,86
21.242,337,280,433,559,257,172,267,98
21.264,353,267,415,531,228,165,238,117
21.288,361,226,336,482,273,215,242,124
21.301,337,212,269,474,309,224,255,123
21.31,339,154,189,374,321,261,292,139
21.311,284,154,188,340,324,252,270,132
21.319,443,152,198,339,324,254,262,126
21.348,470,153,197,318,358,210,262,122
21.363,503,149,181,221,341,207,265,135
21.384,505,143,175,243,346,182,219,121
21.399,512,151,192,256,351,174,210,122
21.429,371,132,202,287,355,193,205,115
21.452,347,214,254,398,304,191,219,119
21.459,371,253,268,413,277,261,205,110
21.482,369,262,266,395,251,256,204,108
21.506,348,260,257,400,256,323,209,106
21.519,336,254,222,380,228,336,203,91
21.542,412,246,151,263,252,348,174,103
21.564,352,212,161,253,264,301,192,96
21.579,361,228,192,254,266,290,259,97
21.602,374,231,194,310,281,256,267,98
21.632,452,235,268,483,300,251,266,113
21.639,476,224,328,566,260,260,291,134
21.67,509,217,319,559,243,272,299,137
21.693,526,183,313,577,273,269,228,142
21.698,555,266,367,603,256,225,240,146
21.722,507,322,331,487,229,176,246,139
21.744,476,337,281,413,225,127,228,114
21.761,445,359,304,494,229,79,213,107
21.782,421,388,332,558,196,77,220,106
21.804,432,347,310,552,154,215,205,112
21.819,472,321,326,593,178,234,210,128
21.842,442,298,367,661,196,244,207,143
21.864,456,273,346,613,242,258,206,147
21.887,581,261,309,563,248,270,236,167
21.926,612,287,334,648,249,196,233,161
21.939,612,271,401,747,256,228,229,156
21.985,661,287,415,727,250,230,225,162
21.999,700,385,422,729,215,215,255,178
22.025,658,406,438,792,246,207,269,165
22.046,710,425,445,789,264,239,256,172
22.084,730,531,430,706,274,241,275,183
22.106,781,534,545,840,336,246,286,198
22.127,767,474,569,866,345,252,308,183
22.151,728,464,586,828,335,380,302,186
22.179,749,453,590,820,334,376,301,214
22.209,724,373,571,817,330,376,282,206
22.232,610,360,444,682,262,375,276,185
22.277,643,435,513,764,341,380,212,193
22.299,669,481,545,816,387,308,196,187
22.316,602,472,592,831,392,317,250,160
22.34,659,480,704,948,443,298,246,180
22.367,664,486,738,965,458,288,242,163
22.389,629,424,697,912,433,334,252,169
22.419,592,480,813,1112,447,315,240,168
22.442,578,520,805,1130,451,285,180,156
22.472,484,488,737,1080,411,303,202,162
22.498,534,510,748,1150,415,326,246,231
22.524,555,623,822,1249,443,307,274,241
22.562,561,544,709,1073,425,296,272,237
22.577,569,486,648,986,425,294,275,236
22.584,579,499,682,975,460,261,271,217
22.592,537,538,714,929,529,336,257,147
22.599,464,421,682,893,509,341,220,110
22.606,532,589,781,998,519,323,208,125
22.615,491,645,830,1046,614,356,270,144
22.622,465,632,781,1030,646,356,280,137
22.63,492,585,732,986,586,288,258,140
22.636,496,566,655,884,555,252,274,137
22.644,416,389,493,701,531,249,270,129
22.652,387,287,411,614,400,187,226,111
22.659,412,280,393,579,312,199,196,102
22.667,364,243,364,545,350,160,213,90
22.669,374,241,410,575,367,146,204,103
22.682,377,220,473,668,490,218,225,109
22.703,392,253,491,681,508,254,221,117
22.727,398,243,502,691,497,278,239,119
22.742,442,239,497,715,486,317,249,119
22.764,440,296,465,661,486,314,237,122
22.787,590,328,385,566,356,269,247,174
22.802,568,305,384,560,353,248,250,175
22.824,572,323,363,500,381,216,233,176
22.848,576,323,315,420,373,151,204,198
22.87,609,293,325,419,379,146,221,221
22.893,497,283,367,399,372,156,206,183
22.915,526,339,355,459,360,137,183,173
22.922,542,343,378,489,298,121,182,195
22.944,549,392,435,536,297,121,197,178
22.967,652,432,440,558,357,119,200,152
22.982,680,437,393,570,380,101,184,149
23.004,668,422,459,580,406,108,183,152
23.027,636,459,474,567,428,117,185,123
23.042,645,429,476,608,429,114,185,113
23.064,539,412,489,601,388,115,172,119
23.086,544,384,497,601,373,117,169,138
23.108,580,361,430,539,357,107,170,140
23.138,696,298,402,544,353,95,179,137
23.161,667,280,337,429,329,103,164,161
23.191,706,216,275,375,306,104,160,152
23.213,702,229,278,335,262,128,178,133
23.243,701,300,279,345,292,133,182,144
23.266,625,337,281,312,315,136,177,148
23.296,608,336,338,330,354,125,177,124
23.319,565,366,426,399,346,128,167,138
23.349,563,371,453,531,352,110,183,141
23.373,565,309,481,552,367,119,193,129
23.394,596,298,480,568,347,118,205,136
23.424,646,305,475,597,354,133,208,156
23.446,640,294,424,586,370,138,214,144
23.469,669,319,446,559,413,143,181,149
23.501,652,320,422,558,377,140,206,148
23.521,587,314,511,575,378,143,203,135
23.546,611,324,488,536,444,148,216,115
23.574,633,312,478,509,450,140,221,133
23.611,549,299,530,481,425,124,234,123
23.628,564,350,603,538,454,119,208,136
23.648,568,339,539,545,450,114,234,142
23.678,464,336,548,579,358,125,234,158
23.701,426,372,581,605,342,132,245,135
23.726,555,366,532,574,366,146,238,139
23.754,519,382,491,524,314,141,236,126
23.777,498,380,463,471,343,139,213,134
23.806,527,389,458,493,324,131,200,137
23.836,591,347,450,468,325,133,195,146
23.859,555,331,566,638,285,122,219,147
23.884,551,259,530,605,301,125,220,150
23.904,571,425,580,678,347,129,209,147
23.934,578,421,585,632,359,114,266,123
23.956,524,445,601,655,388,108,267,116
23.987,418,459,477,538,392,103,247,106
24.009,513,470,475,583,380,109,268,108
24.031,502,315,417,507,283,105,293,99
24.062,527,337,414,537,308,107,243,129
24.084,505,312,375,550,250,104,231,136
24.116,587,288,331,500,286,110,244,152
24.137,521,307,371,471,325,103,216,153
24.161,560,323,396,484,375,108,183,154
24.196,591,296,410,499,366,110,207,147
24.213,610,292,394,494,417,124,218,148
24.242,529,303,449,513,383,129,219,136
24.263,510,260,434,529,357,126,218,132
24.288,544,248,405,510,328,131,236,136
24.317,459,218,369,467,307,125,219,137
24.339,417,251,379,421,291,126,214,135
24.369,436,257,309,364,315,128,196,138
24.391,523,271,277,313,305,128,192,147
24.422,483,267,301,320,294,122,158,141
24.444,509,296,335,351,335,133,164,130
24.466,513,293,338,373,310,125,177,127
24.496,551,282,348,416,302,118,239,137
24.521,535,284,372,449,317,121,256,141
24.549,547,279,359,439,310,147,268,145
24.572,534,282,365,474,297,155,277,142
24.597,619,250,343,460,337,152,259,162
24.624,654,265,345,478,375,153,252,158
24.647,592,236,305,442,399,159,254,143
24.677,563,238,300,433,412,138,247,143
24.699,593,200,359,391,397,120,228,150
24.723,539,224,378,412,374,120,224,152
24.752,435,183,373,442,361,115,170,143
24.778,521,207,385,476,335,108,167,152
24.804,585,211,387,477,322,103,153,163
24.826,603,208,295,449,357,113,178,156
24.86,625,193,249,420,339,106,188,136
24.879,637,211,266,379,313,105,196,136
24.901,665,206,311,343,299,106,185,128
24.931,611,206,309,378,348,106,192,115
24.954,632,215,317,394,314,91,169,121
24.984,588,215,380,411,332,100,155,117
25.006,608,222,415,402,320,101,157,116
25.031,579,225,412,409,319,107,182,127
25.059,570,258,452,387,300,115,192,129
25.082,518,294,548,495,295,117,194,116
25.112,513,281,515,488,261,113,232,118
25.134,487,315,525,495,257,114,241,125
25.158,448,332,501,491,260,102,255,123
25.186,479,326,494,537,213,92,247,127
25.21,528,301,409,450,322,126,290,164
25.239,533,332,435,499,342,138,269,163
25.261,554,307,396,479,358,149,285,170
25.286,540,296,431,472,362,161,275,170
25.316,522,286,393,408,385,163,305,172
25.337,569,310,372,422,309,136,271,157
25.366,554,295,390,364,321,128,275,157
25.388,626,278,402,373,355,123,254,151
25.418,634,268,381,375,370,120,233,158
25.441,633,245,428,375,359,121,192,149
25.464,513,193,446,325,353,127,183,130
25.494,607,186,412,370,340,130,175,140
25.517,500,239,396,330,284,118,186,146
25.541,480,237,392,326,280,108,201,129
25.569,515,238,343,356,292,110,199,127
25.594,538,248,294,357,293,109,209,133
25.622,506,237,276,285,290,102,212,115
25.646,546,206,323,290,306,111,190,102
25.674,548,209,309,323,297,111,193,107
25.697,506,233,351,308,293,125,223,118
