time,e1,e2,e3,e4,e5,e6,e7,e8
0.121,1043,1024,867,438,735,877,928,1034
0.146,898,887,713,367,598,725,783,894
0.159,817,813,621,325,517,628,684,812
0.182,715,714,509,272,410,517,570,706
0.199,611,609,394,217,314,409,458,598
0.219,538,532,311,170,229,332,381,523
0.241,506,489,273,143,196,297,341,487
0.258,484,458,252,131,175,277,326,465
0.279,466,437,235,121,163,258,306,446
0.302,448,414,211,107,136,240,287,428
0.318,433,396,194,90,128,223,270,418
0.339,420,385,187,76,112,217,270,418
0.361,416,386,191,83,114,229,276,431
0.378,419,395,198,97,126,239,282,442
0.399,426,409,213,127,144,244,285,454
0.422,433,424,226,149,154,254,295,463
0.438,452,443,238,160,166,261,299,468
0.459,463,451,241,164,172,257,298,464
0.482,465,451,240,159,166,252,296,458
0.498,466,448,236,152,170,243,293,448
0.519,462,439,227,139,162,236,284,440
0.542,452,426,213,129,150,231,276,431
0.558,442,413,202,121,135,221,268,420
0.579,433,402,193,116,125,217,260,409
0.602,416,384,174,99,99,210,254,398
0.624,400,366,161,89,92,199,245,382
0.639,385,354,162,84,88,199,245,378
0.661,383,352,166,85,101,208,254,392
0.684,393,368,180,102,125,221,269,412
0.7,400,383,191,116,147,229,273,422
0.721,411,395,200,131,155,241,279,435
0.743,409,394,194,149,170,228,267,428
0.758,391,379,192,166,195,212,242,397
0.781,357,346,200,171,215,190,208,353
0.803,325,312,219,183,250,184,190,318
0.818,288,283,263,194,275,192,166,275
0.841,258,257,297,199,293,212,164,243
0.872,236,244,328,195,296,237,171,223
0.879,214,228,345,190,290,260,189,207
0.901,196,229,356,180,270,279,210,181
0.924,175,226,338,162,251,271,223,161
0.939,164,231,322,148,229,264,228,149
0.961,154,238,295,134,207,245,224,144
0.984,156,241,263,122,188,221,209,137
0.999,147,226,221,110,163,185,183,143
1.021,137,204,187,104,142,163,159,136
1.044,154,204,170,91,123,153,151,149
1.067,267,285,283,127,190,231,210,242
1.089,385,404,393,187,285,311,284,352
1.104,499,517,477,217,345,377,349,447
1.127,570,588,529,240,384,419,393,510
1.148,590,608,540,244,394,426,400,524
1.164,557,572,483,223,361,383,368,498
1.186,495,496,393,176,288,317,314,439
1.209,401,387,283,130,207,236,245,356
1.224,318,294,167,82,124,157,185,291
1.254,302,261,121,66,93,132,177,292
1.268,312,285,122,76,100,152,204,305
1.284,327,314,144,85,124,179,227,330
1.306,354,347,167,109,143,208,246,364
1.329,384,377,197,124,161,226,260,392
1.344,406,401,211,137,167,238,267,405
1.367,428,416,216,137,170,238,268,413
1.388,428,406,205,132,156,223,260,403
1.404,419,390,189,117,141,199,243,382
1.427,399,362,157,102,122,175,227,354
1.45,383,341,126,87,109,151,214,332
1.464,348,308,109,87,113,131,189,311
1.486,322,289,115,94,124,121,167,289
1.508,293,263,119,99,133,112,152,264
1.524,273,247,115,93,126,101,143,250
1.546,261,234,117,93,125,118,141,248
1.569,272,245,122,86,116,129,160,259
1.584,297,269,127,79,110,148,193,294
1.606,331,310,147,82,114,172,220,333
1.629,357,343,168,107,140,202,241,367
1.644,377,371,185,120,165,212,258,383
1.667,396,394,200,136,177,220,276,406
1.69,422,418,215,142,180,230,279,418
1.704,436,426,211,142,179,236,287,425
1.726,439,428,209,127,163,221,280,416
1.749,431,411,202,121,151,209,268,410
1.763,416,391,185,105,136,195,247,384
1.786,385,356,155,93,127,176,226,355
1.81,349,316,131,85,113,143,201,322
1.825,326,284,110,83,110,140,191,302
1.846,309,267,92,78,94,132,184,292
1.87,295,248,92,83,94,131,174,283
1.884,281,247,186,110,146,155,184,270
1.906,299,332,340,168,242,259,247,284
1.93,380,486,486,224,345,379,339,342
1.944,440,577,591,261,412,468,407,394
1.967,482,646,648,285,451,518,456,429
1.99,505,679,660,292,457,538,474,448
2.012,500,658,612,269,428,510,455,440
2.027,433,557,513,225,356,432,392,388
2.05,359,460,396,180,280,336,320,316
2.072,283,353,295,139,212,254,245,250
2.087,218,265,212,102,170,188,191,202
2.11,156,197,160,80,133,143,141,159
2.132,129,155,128,79,115,115,116,127
2.155,100,125,93,77,106,97,94,111
2.17,88,100,66,66,98,82,73,94
2.192,76,82,63,63,82,68,66,73
2.206,74,76,58,62,80,60,62,72
2.23,73,64,58,54,78,59,62,79
2.252,74,64,57,49,72,55,67,74
2.266,78,65,61,53,67,53,69,76
2.29,78,64,56,51,62,49,67,75
2.312,80,64,54,51,56,51,69,76
2.327,82,59,56,51,53,45,67,69
2.35,85,57,54,47,57,44,59,78
2.372,85,55,54,44,64,50,64,81
2.387,85,59,53,48,70,54,70,83
2.409,87,60,57,51,73,57,72,84
2.433,86,67,53,51,74,59,73,84
2.446,86,81,55,53,76,60,76,81
2.469,83,79,59,51,72,57,66,78
2.492,80,77,58,51,77,57,63,75
2.506,76,76,54,49,79,54,63,74
2.529,74,75,56,49,82,57,65,79
2.552,76,66,55,49,78,63,67,82
2.566,82,71,56,50,76,62,69,81
2.59,90,76,64,49,74,59,71,85
2.612,97,77,63,47,71,61,69,92
2.626,100,76,68,50,73,61,66,90
2.65,95,73,69,48,71,53,68,95
2.672,94,75,65,45,75,56,71,97
2.686,91,80,58,42,69,59,66,93
2.709,88,85,63,48,72,62,70,91
2.732,95,98,59,53,67,64,73,95
2.746,128,133,75,58,87,81,80,115
2.77,166,172,89,61,92,95,93,137
2.792,180,185,98,67,90,97,104,149
2.806,182,188,99,67,96,96,101,146
2.829,182,186,98,63,95,98,100,148
2.852,170,167,89,69,84,89,97,136
2.866,145,142,78,68,76,74,87,122
2.89,138,134,73,70,86,78,83,116
2.912,137,135,72,70,82,79,92,125
2.927,142,138,74,71,87,77,92,122
2.949,136,136,73,63,82,76,90,116
2.972,129,122,71,65,86,79,89,116
2.994,118,114,65,56,74,71,82,109
3.01,118,108,65,54,67,73,73,102
3.032,102,95,64,50,65,69,67,98
3.054,100,93,61,52,69,65,65,93
3.069,86,83,59,51,65,61,59,81
3.093,77,74,59,59,73,59,58,78
3.115,71,69,55,58,73,51,53,72
3.129,73,64,57,59,75,51,57,69
3.152,64,58,54,57,76,49,55,72
3.174,66,57,58,58,84,51,54,77
3.189,76,57,55,56,83,50,60,79
3.212,78,55,53,55,90,51,60,79
3.235,82,59,46,54,85,56,61,80
3.25,83,63,48,53,80,55,60,79
3.272,85,70,48,52,74,55,63,74
3.295,80,69,52,46,71,54,61,72
3.309,84,74,54,47,59,55,61,80
3.332,81,69,57,49,58,49,60,80
3.355,81,68,56,47,57,49,61,84
3.369,83,67,54,47,55,52,59,84
3.392,82,64,55,52,51,55,61,81
3.414,78,61,55,57,56,56,60,80
3.429,75,67,52,58,58,57,62,80
3.452,75,63,53,60,59,60,62,80
3.475,75,65,51,59,57,52,64,80
3.489,77,67,46,54,64,47,62,83
3.512,78,67,45,47,62,45,62,82
3.535,79,65,46,46,62,49,65,84
3.549,80,71,49,46,66,50,68,81
3.572,78,69,53,50,66,53,63,80
3.595,83,69,56,52,76,72,65,82
3.609,94,88,65,57,80,76,78,86
3.632,120,112,80,58,85,81,84,100
3.655,151,142,90,56,85,92,97,123
3.669,165,164,104,61,87,96,106,138
3.693,174,177,111,63,78,87,107,145
3.714,206,222,136,72,103,111,124,164
3.729,227,287,171,87,128,148,160,189
3.753,236,328,214,105,149,181,190,208
3.775,254,362,247,121,179,212,219,228
3.789,269,386,272,128,193,232,237,247
3.812,260,374,273,125,186,233,237,247
3.835,248,331,257,117,171,218,221,240
3.849,238,293,230,109,161,196,196,227
3.872,235,260,205,98,146,173,175,220
3.895,239,246,186,95,132,160,159,220
3.917,255,250,177,94,135,158,159,231
3.932,270,264,180,96,141,159,160,252
3.955,296,276,179,94,133,161,164,266
3.977,298,285,168,82,125,157,157,272
3.992,302,283,160,79,121,150,153,274
4.015,305,291,163,75,111,144,148,277
4.037,301,294,161,73,107,135,143,265
4.053,292,287,147,73,115,130,145,264
4.074,290,276,139,76,104,125,150,257
4.097,285,269,122,71,100,115,150,249
4.114,266,252,108,72,99,109,150,241
4.134,268,243,105,73,98,118,162,255
4.157,273,255,131,73,107,132,175,274
4.174,287,276,150,86,131,148,194,300
4.194,309,296,167,94,144,174,213,325
4.216,332,317,172,104,147,180,219,350
4.233,341,329,171,109,150,182,222,348
4.254,355,335,165,109,143,183,220,348
4.276,362,339,158,96,129,180,216,346
4.293,363,347,159,92,118,179,219,347
4.314,368,351,167,82,117,184,227,344
4.337,372,353,168,72,108,183,227,349
4.353,355,344,157,68,99,169,218,335
4.374,333,319,162,84,110,153,198,315
4.397,304,289,168,99,130,131,169,286
4.413,268,254,161,98,129,112,140,254
4.434,236,221,156,98,129,98,122,224
4.457,241,218,159,99,135,112,138,230
4.473,265,244,160,97,139,142,169,258
4.494,290,271,157,89,133,165,203,298
4.517,327,302,165,94,143,186,225,329
4.534,353,332,180,105,151,203,239,359
4.554,345,331,182,108,158,208,234,352
4.577,329,317,175,103,146,193,224,333
4.593,311,308,167,112,143,180,211,304
4.614,288,287,158,109,132,169,205,286
4.637,272,262,142,101,127,161,195,260
4.654,271,258,138,96,118,146,195,259
4.674,274,255,130,93,112,148,189,258
4.697,276,242,123,72,101,141,181,254
4.714,273,242,109,67,96,132,171,248
4.734,267,248,106,61,87,118,170,250
4.756,274,257,107,57,82,126,173,258
4.778,279,261,117,62,82,140,188,276
4.793,293,274,125,70,92,158,194,292
4.816,301,285,131,77,107,174,200,301
4.839,307,288,134,84,127,183,201,302
4.854,313,293,138,90,131,181,202,303
4.877,320,306,140,88,135,172,192,297
4.899,316,307,142,85,132,166,185,288
4.914,320,307,142,85,126,156,183,287
4.937,329,314,150,84,116,160,194,293
4.958,332,312,153,79,115,160,197,300
4.974,327,303,149,81,112,164,200,301
4.997,327,298,142,79,107,162,214,305
5.019,315,293,141,75,103,160,212,301
5.034,303,281,128,70,102,156,202,294
5.057,291,273,122,73,99,162,197,286
5.079,291,274,122,76,99,168,199,288
5.093,296,280,135,80,104,172,197,297
5.116,307,290,139,93,119,180,204,308
5.139,317,301,152,99,132,187,212,318
5.154,327,314,160,102,132,184,218,322
5.177,331,321,164,101,135,181,216,322
5.199,330,318,156,103,138,176,206,317
5.214,327,313,156,91,125,170,201,309
5.236,322,309,150,89,111,164,192,302
5.259,321,301,141,82,109,164,188,301
5.274,316,295,140,79,110,161,191,301
5.297,309,290,134,75,103,157,197,297
5.319,307,283,129,75,108,155,197,295
5.334,304,276,122,70,105,155,201,292
5.357,294,269,126,71,99,147,199,288
5.379,292,269,120,71,98,153,197,288
5.394,297,278,131,73,101,164,197,299
5.417,299,289,141,78,110,170,200,304
5.44,306,300,147,87,122,175,202,307
5.454,315,317,151,93,130,187,205,313
5.476,325,325,160,107,133,189,208,315
5.499,330,327,161,111,144,182,210,314
5.514,336,326,159,108,143,182,208,315
5.537,331,320,157,103,134,172,203,313
5.559,318,305,146,104,137,154,193,298
5.574,301,289,162,102,152,152,181,281
5.596,282,278,206,115,172,167,161,259
5.619,262,273,297,149,222,218,192,245
5.634,257,319,390,184,278,302,250,246
5.657,239,314,436,193,296,341,278,236
5.679,224,309,449,197,305,356,295,231
5.696,218,313,447,191,301,359,312,228
5.716,215,329,411,177,281,349,306,241
5.739,221,310,341,146,240,292,275,236
5.754,258,349,303,143,234,267,264,263
5.776,290,377,289,133,216,259,264,286
5.799,303,382,266,132,202,251,253,291
5.822,304,363,237,117,180,220,232,274
5.836,284,326,212,109,157,202,205,253
5.859,248,270,174,91,123,173,178,223
5.882,208,219,137,85,113,139,142,181
5.897,176,177,117,77,100,116,119,150
5.919,148,145,101,71,89,100,108,128
5.942,130,131,86,70,89,88,98,121
5.956,121,119,81,65,84,78,89,104
5.979,111,104,70,59,75,65,86,93
6.002,97,85,59,56,71,57,78,89
6.017,88,77,47,56,73,60,75,80
6.039,89,73,46,52,73,56,73,75
6.062,86,67,45,52,76,60,70,76
6.077,83,62,44,60,74,62,69,79
6.099,77,62,48,58,76,59,73,79
6.122,75,61,48,57,70,55,67,83
6.145,72,63,50,58,70,55,67,83
6.159,73,67,51,57,66,52,69,82
6.182,73,72,53,51,65,51,67,74
6.196,79,77,49,54,65,56,63,73
6.219,84,78,49,56,66,56,68,73
6.242,84,75,49,53,63,58,68,75
6.256,88,70,51,59,73,61,68,78
6.279,88,69,51,60,74,61,66,85
6.302,96,73,56,57,75,57,64,85
6.316,133,133,86,53,77,72,80,125
6.339,193,206,128,66,99,109,123,175
6.361,210,227,138,63,96,117,127,190
6.377,218,237,144,68,99,119,134,198
6.4,221,242,145,71,105,127,139,206
6.422,205,222,135,73,103,120,133,188
6.437,153,163,99,63,85,89,100,142
6.459,125,132,85,61,76,76,91,120
6.482,118,115,75,55,70,76,84,112
6.497,116,110,74,62,65,66,87,102
6.527,115,98,70,58,66,64,80,96
6.542,110,85,71,61,64,64,74,96
6.557,114,88,68,66,68,67,78,95
6.579,107,87,70,68,77,65,78,88
6.602,98,74,64,68,79,66,71,83
6.617,91,76,60,71,80,64,71,87
6.639,120,100,64,70,84,71,81,112
6.662,150,136,82,65,86,75,94,140
6.677,166,158,89,65,88,90,109,154
6.7,178,170,96,61,87,97,114,164
6.721,176,173,96,59,87,98,120,162
6.745,165,171,96,59,91,94,114,150
6.759,136,143,83,60,87,93,102,126
6.782,124,120,74,58,82,85,87,117
6.805,118,119,68,58,79,81,84,113
6.819,118,120,71,58,79,84,76,115
6.842,110,122,72,62,77,83,81,113
6.865,107,122,72,64,83,79,80,112
6.879,99,120,73,62,80,71,77,103
6.902,83,104,72,66,80,63,73,95
6.925,85,93,70,65,78,59,71,90
6.939,77,69,59,60,72,55,64,84
6.962,80,70,63,58,72,54,67,85
6.985,81,74,62,62,72,54,68,86
6.999,87,79,61,52,76,61,69,87
7.022,120,108,71,52,80,74,81,98
7.045,143,129,82,52,86,89,92,130
7.059,166,160,91,58,92,105,109,157
7.082,181,176,96,59,92,109,115,173
7.105,185,181,100,61,89,107,119,176
7.118,171,176,99,63,85,104,115,175
7.145,180,210,123,69,98,110,115,173
7.166,188,238,157,84,101,143,143,176
