time,e1,e2,e3,e4,e5,e6,e7,e8
0.124,896,739,385,279,1202,1065,1012,961
0.151,767,625,330,230,1009,934,858,787
0.158,667,524,292,196,818,859,766,701
0.181,583,396,283,134,649,682,609,512
0.197,438,287,185,71,557,577,516,457
0.226,307,278,144,59,479,448,432,354
0.241,265,228,136,68,375,384,367,280
0.257,220,227,125,92,752,319,303,233
0.279,192,233,91,186,864,255,241,209
0.301,174,245,96,493,908,239,213,194
0.324,160,235,115,745,950,213,197,173
0.338,170,236,113,822,976,209,182,167
0.362,189,224,116,880,689,210,165,164
0.385,186,191,117,916,530,225,157,139
0.401,198,280,150,858,446,224,154,130
0.422,197,322,138,837,337,196,150,125
0.443,205,354,134,895,240,189,138,131
0.458,224,443,156,930,230,213,175,173
0.482,239,621,163,936,267,308,190,204
0.504,231,648,137,917,267,309,249,222
0.519,255,701,165,801,264,320,256,225
0.541,252,731,166,699,261,331,262,228
0.563,254,822,134,633,252,519,262,200
0.578,260,795,134,619,176,482,251,184
0.601,251,831,128,627,162,556,209,157
0.623,245,808,87,627,166,584,215,197
0.638,244,793,220,647,150,575,222,219
0.663,215,705,547,701,127,417,207,231
0.683,190,615,711,729,131,393,212,239
0.7,216,618,1018,745,120,390,195,238
0.722,209,585,1226,759,96,426,177,202
0.745,202,561,1348,738,96,510,158,187
0.758,209,520,1337,676,85,505,137,172
0.801,192,501,1310,640,81,502,129,147
0.813,167,328,1192,602,93,430,115,143
0.818,161,309,1063,565,97,352,111,144
0.842,149,294,952,545,105,267,99,114
0.863,145,234,895,640,113,297,95,107
0.878,149,226,869,624,113,299,84,99
0.901,144,216,774,672,103,296,89,103
0.923,134,196,696,686,100,284,83,103
0.938,342,572,635,686,91,256,89,108
0.961,408,1070,576,569,131,308,94,125
0.983,419,1211,533,586,153,346,95,135
0.998,436,1261,511,500,153,351,90,135
1.029,436,1302,482,472,151,358,101,127
1.043,313,1236,439,463,153,346,107,123
1.066,211,904,400,463,109,257,101,102
1.089,183,743,366,424,72,200,98,88
1.106,134,700,295,417,71,185,98,84
1.127,128,671,287,413,67,171,90,87
1.149,96,608,296,415,60,192,85,83
1.164,93,556,314,408,61,181,83,81
1.186,98,556,327,391,66,181,91,77
1.209,100,543,344,401,67,176,96,78
1.231,117,535,365,384,71,188,91,84
1.246,118,542,400,371,78,162,88,93
1.27,109,559,401,413,77,160,91,84
1.284,111,560,396,474,77,206,79,89
1.306,110,570,393,533,70,198,65,94
1.329,86,559,373,585,68,184,73,82
1.343,88,536,337,615,61,186,73,72
1.374,90,492,327,627,66,187,73,76
1.403,82,536,345,603,74,128,79,78
1.426,79,494,399,571,86,130,94,72
1.456,78,494,435,559,89,137,97,80
1.478,76,531,455,565,92,134,117,90
1.51,81,583,563,546,96,138,127,98
1.547,83,605,588,809,100,143,133,106
1.564,99,690,568,886,121,172,144,114
1.569,164,686,927,952,253,172,151,117
1.576,262,637,990,1065,401,198,150,128
1.584,364,570,977,1181,487,198,150,130
1.593,484,444,1035,1075,714,210,158,153
1.606,536,283,1098,1014,830,195,154,171
1.629,532,243,848,918,842,204,156,196
1.643,500,259,776,754,809,203,157,202
1.675,467,626,730,551,807,443,215,317
1.689,377,707,615,459,638,474,219,348
1.711,306,836,550,482,669,537,225,373
1.726,327,1091,536,572,869,540,233,398
1.749,320,1265,534,637,958,552,234,413
1.772,272,1181,556,608,1332,408,197,332
1.786,221,1159,583,550,1557,371,196,286
1.809,226,1083,575,486,1676,284,194,243
1.833,178,878,558,371,1724,276,191,198
1.846,206,660,563,195,1778,247,192,168
1.869,220,601,517,171,1542,213,181,165
1.893,256,564,462,167,1345,257,168,176
1.906,314,539,483,191,1443,277,169,181
1.932,342,502,650,183,1457,277,153,163
1.952,362,669,841,185,1562,270,151,159
1.967,371,799,1045,183,1659,290,153,175
1.989,354,927,1123,182,1736,250,163,172
2.011,289,1195,1104,137,1481,212,153,168
2.026,246,1403,1006,321,1292,229,151,161
2.049,182,1506,862,542,1021,231,147,143
2.071,137,1593,741,679,852,204,135,115
2.086,121,1611,783,746,638,211,125,109
2.109,124,1466,828,786,599,217,127,94
2.133,119,1275,813,762,558,216,136,92
2.146,118,1063,786,655,481,228,138,99
2.169,101,835,660,550,318,233,143,105
2.191,100,695,457,478,221,234,140,98
2.206,94,661,322,432,185,230,137,100
2.23,95,634,303,551,182,224,133,98
2.252,94,600,296,566,162,198,132,93
2.266,102,580,393,576,146,204,130,100
2.29,100,559,590,570,156,251,139,111
2.314,114,537,617,568,160,264,135,116
2.326,151,515,718,450,151,263,135,131
2.349,165,508,1072,391,163,303,130,139
2.374,198,488,1226,353,164,320,126,143
2.386,206,464,1366,552,147,283,117,132
2.412,211,462,1508,701,135,264,117,124
2.432,342,494,1557,796,142,260,109,115
2.449,462,531,1387,910,135,237,107,107
2.47,588,555,1267,981,133,213,104,92
2.492,700,935,1043,953,144,199,106,102
2.507,810,1289,817,915,151,202,105,108
2.531,1095,1521,845,875,164,232,112,128
2.551,1073,1697,1232,804,160,239,113,142
2.566,1035,1804,1295,758,167,228,114,148
2.589,989,1685,1414,717,165,234,113,143
2.615,948,1451,1511,679,159,230,111,145
2.634,622,1223,1434,688,139,196,102,122
2.649,679,962,1153,718,136,167,103,104
2.672,702,758,1187,726,128,181,103,100
2.694,707,678,1122,735,115,184,97,100
2.713,673,637,1178,730,111,185,97,90
2.731,633,591,1199,688,106,176,98,82
2.754,572,570,1189,634,103,172,92,78
2.769,534,543,1137,596,93,159,84,75
2.792,540,541,1143,552,99,158,83,73
2.814,578,558,1023,519,113,158,84,74
2.828,617,570,985,493,126,166,84,80
2.859,659,574,896,481,126,169,86,82
2.874,726,569,786,477,135,175,95,84
2.899,775,562,665,477,147,168,104,83
2.913,807,548,546,483,141,170,106,87
2.94,822,536,508,486,136,173,107,84
2.986,835,534,513,486,141,174,107,85
2.987,824,533,482,481,138,169,101,82
2.994,816,527,431,479,129,168,102,87
3.009,812,517,380,477,122,166,105,89
3.032,811,524,347,475,124,162,105,93
3.059,811,522,339,478,115,165,109,93
3.07,801,526,349,485,112,166,109,100
3.092,794,533,357,494,112,170,102,95
3.116,783,543,351,504,117,178,96,87
3.128,772,546,339,514,116,181,97,77
3.151,760,554,318,510,119,174,100,104
3.174,807,540,309,523,120,191,187,194
3.188,807,522,296,518,118,198,242,248
3.211,801,504,281,503,115,195,270,281
3.235,791,485,261,479,113,194,284,299
3.257,779,469,239,461,115,194,284,298
3.273,721,484,210,427,115,176,235,245
3.293,723,524,207,443,118,174,195,206
3.316,721,549,335,479,148,197,190,197
3.341,718,567,408,517,153,219,198,204
3.353,715,577,450,551,170,239,236,227
3.376,701,570,478,569,173,247,253,241
3.392,705,551,508,577,186,285,324,324
3.414,800,565,478,597,210,349,418,417
3.436,979,815,719,846,333,593,639,614
3.453,1460,1389,1258,1397,727,1004,950,874
3.474,1674,1641,1470,1630,864,1192,1113,1016
3.496,1791,1808,1603,1780,953,1297,1195,1079
3.527,1828,1899,1686,1867,1009,1357,1234,1107
3.539,1780,1874,1639,1817,1005,1310,1182,1055
3.55,1432,1551,1307,1465,782,1056,988,890
3.572,1186,1326,1090,1220,634,856,837,758
3.594,987,1128,908,996,493,686,720,664
3.617,826,1001,766,814,354,531,624,585
3.663,729,913,689,703,263,429,561,528
3.665,675,854,664,652,214,364,518,491
3.67,641,814,664,628,195,325,483,467
3.691,606,775,662,618,174,294,458,445
3.707,570,734,659,616,146,273,439,425
3.73,536,689,655,616,127,255,415,411
3.751,521,663,645,620,114,248,400,397
3.767,528,645,632,624,128,267,404,399
3.79,565,660,625,625,154,297,422,409
3.811,599,700,618,622,197,319,440,426
3.835,627,749,611,616,213,339,460,435
3.85,647,793,609,611,219,350,466,436
3.871,651,821,611,609,211,345,464,428
3.888,636,818,618,610,197,323,448,403
3.91,626,792,631,615,160,301,425,375
3.938,620,754,647,621,154,273,400,347
3.948,617,713,656,628,163,255,381,325
3.971,616,685,663,632,169,235,358,303
3.991,609,663,666,632,167,222,342,297
4.008,592,646,660,626,169,210,331,291
4.03,570,633,655,621,161,200,326,304
4.051,546,624,650,617,139,202,330,311
4.067,519,620,642,615,123,208,335,324
4.09,509,618,636,617,115,221,351,342
4.111,516,633,633,620,132,252,382,368
4.133,543,672,626,622,165,300,415,388
4.154,580,720,623,623,193,329,442,413
4.171,611,758,623,621,217,355,465,429
4.198,629,787,627,616,223,364,479,437
4.21,641,796,637,617,212,358,477,431
4.231,637,777,655,617,184,334,464,421
4.254,627,742,681,620,165,311,451,404
4.27,620,710,698,623,154,283,433,387
4.291,617,683,710,625,161,262,405,363
4.313,607,660,714,623,169,242,382,349
4.333,590,642,704,620,176,219,360,328
4.351,569,630,683,617,175,203,341,314
4.374,539,622,665,610,158,195,332,309
4.39,512,616,647,609,136,198,335,312
4.411,493,613,633,610,120,211,341,312
4.434,491,613,625,613,114,235,356,325
4.45,505,629,621,615,134,262,373,344
4.471,535,663,616,620,157,284,395,353
4.501,571,706,619,622,179,299,409,364
4.51,603,738,627,621,192,312,421,376
4.531,624,761,641,617,195,314,427,384
4.553,634,760,660,610,183,301,418,379
4.57,636,738,686,611,163,286,405,380
4.591,627,702,708,612,155,271,396,375
4.613,621,671,719,613,163,249,379,366
4.63,618,648,719,616,162,227,362,355
4.658,608,634,708,621,162,217,356,349
4.673,593,625,688,614,166,207,347,345
4.696,570,621,663,607,160,202,339,347
4.72,539,619,644,602,134,203,340,348
4.734,503,617,631,597,123,209,345,356
4.757,471,616,624,597,125,222,353,370
4.782,446,629,620,604,130,251,379,391
4.804,434,679,618,612,156,288,408,415
4.821,425,735,625,618,182,323,443,443
4.855,427,783,642,622,201,346,471,466
4.857,439,823,672,622,204,359,483,482
4.876,454,834,713,618,200,357,485,483
4.898,515,811,743,609,179,329,468,469
4.913,568,772,757,609,172,290,433,443
4.936,600,728,755,609,169,251,392,412
4.959,619,680,736,612,181,212,355,373
4.973,676,645,697,625,205,172,308,331
4.997,692,608,660,645,223,158,274,305
5.019,699,577,625,656,232,162,249,276
5.033,703,561,593,656,238,184,234,257
5.056,706,554,564,647,240,198,227,251
5.078,659,557,547,620,225,220,232,260
5.093,604,564,540,583,218,236,240,272
5.116,544,555,541,551,202,245,266,290
5.14,490,532,553,529,193,242,288,309
5.154,481,502,563,520,175,238,296,320
5.182,499,461,559,529,166,224,303,334
5.234,508,421,538,536,162,213,288,311
5.235,523,389,512,530,163,198,261,289
5.237,553,380,493,535,150,179,235,264
5.259,550,378,478,544,141,158,222,244
5.273,529,394,480,542,143,144,203,214
5.296,537,421,503,553,129,134,217,234
5.319,570,457,536,569,132,135,236,252
5.333,576,490,564,570,159,148,257,267
5.356,575,518,590,562,185,171,279,287
5.379,576,537,610,559,206,196,296,306
5.393,562,549,623,550,222,213,313,323
5.417,523,577,628,542,230,228,334,348
5.438,499,621,623,540,232,247,354,377
5.453,482,686,621,548,223,277,381,405
5.536,474,735,631,557,213,297,412,431
5.54,481,768,654,570,204,306,433,449
5.545,507,779,682,585,190,312,447,453
5.546,545,763,708,600,162,306,447,449
5.559,581,723,742,606,146,282,440,436
5.581,605,691,758,606,136,255,425,421
5.596,609,663,755,604,141,240,416,407
5.618,604,643,741,599,147,233,408,404
5.642,597,631,722,593,153,230,404,399
5.656,593,624,691,591,156,227,394,397
5.678,587,619,664,593,149,234,386,392
5.702,583,617,644,589,135,233,374,392
5.716,568,616,631,588,123,231,368,389
5.738,540,616,623,582,115,244,375,394
5.762,502,634,619,579,129,275,400,412
5.778,468,685,617,577,153,303,425,438
5.799,441,732,624,581,184,333,463,457
5.825,436,769,641,584,189,350,483,465
5.836,437,794,671,594,195,359,491,472
5.864,448,799,712,602,183,349,483,469
5.881,477,768,749,607,168,330,476,454
5.899,516,731,773,607,138,299,450,438
5.918,553,696,780,603,142,272,427,423
5.942,591,669,768,597,154,243,414,409
5.97,620,647,740,591,173,222,402,392
5.978,633,633,707,585,174,210,383,378
6.002,628,624,676,581,167,211,363,365
6.016,610,619,652,582,152,212,357,358
6.038,578,617,636,579,133,216,348,357
6.062,542,616,625,575,117,232,351,368
6.076,502,640,620,574,127,261,379,392
6.098,478,698,617,574,155,295,417,417
6.122,466,749,618,573,183,323,444,441
6.136,472,784,631,579,192,342,465,460
6.158,496,811,656,586,196,352,473,467
6.181,532,812,683,594,189,340,471,461
6.196,574,776,712,602,174,314,451,449
6.218,605,736,742,608,160,295,433,436
6.241,627,703,755,605,159,274,411,414
6.256,638,673,750,598,163,251,399,395
6.279,639,650,735,593,168,231,376,379
6.302,629,634,713,583,165,221,368,368
6.316,622,625,682,578,155,206,355,357
6.338,614,619,656,576,146,199,348,352
6.362,595,617,638,576,132,194,343,353
6.376,567,616,626,571,120,214,355,362
6.401,534,633,620,568,135,242,374,383
6.422,504,671,617,565,143,276,401,402
6.436,489,722,616,565,169,305,428,424
6.459,507,760,621,570,177,328,450,440
6.482,541,788,636,575,178,341,456,442
6.505,588,793,658,586,169,337,460,442
6.519,620,775,685,597,162,318,449,437
6.542,641,735,714,603,145,292,436,432
6.564,645,700,737,602,144,270,421,419
6.579,642,671,743,598,160,246,413,411
6.604,630,650,736,591,172,231,396,399
6.624,623,635,717,585,172,217,384,389
6.638,616,626,692,580,165,218,369,371
6.661,608,621,664,577,153,211,361,362
6.684,590,618,644,578,134,214,352,361
6.706,563,617,631,575,119,231,360,367
6.722,530,632,623,570,141,259,386,389
6.745,503,679,619,566,158,288,427,419
6.758,491,729,617,567,189,320,450,447
6.782,542,764,621,574,205,336,470,461
6.805,587,790,630,580,210,334,469,466
6.818,626,794,647,589,199,318,456,453
6.842,654,766,666,597,186,289,424,430
6.865,673,725,687,599,167,250,396,403
6.88,650,690,705,595,158,217,368,380
6.902,637,661,715,592,170,203,354,363
6.924,692,630,707,607,192,193,328,340
6.938,724,603,691,622,204,187,312,320
6.965,741,579,667,633,203,187,298,308
6.986,752,556,637,642,195,191,288,312
6.998,757,533,607,647,177,193,290,311
7.023,703,536,587,632,165,204,310,335
7.049,667,562,576,615,163,225,333,366
7.07,646,594,573,602,169,247,367,389
7.084,632,622,580,592,177,263,390,404
7.104,624,643,594,587,174,270,402,417
7.119,620,644,618,585,157,268,406,418
7.142,618,626,648,584,145,256,399,406
7.166,617,601,677,583,132,235,377,388
7.178,613,578,700,584,119,216,359,373
7.202,603,563,708,584,126,195,338,352
7.224,583,556,704,581,130,182,320,336
7.238,561,554,689,578,131,170,308,321
7.27,549,554,669,579,124,162,302,317
7.284,538,555,648,574,122,150,289,301
7.298,550,553,635,568,117,145,279,296
7.321,590,548,627,565,113,144,279,297
7.344,621,558,623,565,110,163,288,310
7.359,637,590,617,563,120,192,303,334
7.389,653,632,610,565,137,216,331,360
7.404,653,664,609,570,159,239,358,372
7.427,638,687,613,573,170,247,368,383
7.442,629,690,626,574,166,241,368,381
7.464,623,671,646,574,162,220,366,369
7.486,612,635,668,573,154,206,346,352
7.501,602,607,685,568,130,183,324,344
7.524,583,586,697,566,118,169,306,326
7.547,560,572,696,562,126,159,292,310
7.561,537,564,687,558,119,150,271,298
7.584,530,559,674,560,110,140,265,291
7.607,542,557,659,562,112,142,260,291
7.635,550,556,644,560,111,149,269,300
7.645,584,559,633,559,103,163,283,321
7.667,615,574,626,560,114,187,301,337
7.683,634,608,622,558,128,211,326,357
7.705,634,657,617,560,148,231,349,376
7.727,646,693,615,560,164,243,364,388
7.741,638,717,618,563,168,253,380,392
7.765,629,724,627,567,162,252,389,399
7.788,623,712,640,571,157,247,382,402
7.819,620,681,653,573,141,242,380,401
7.825,618,657,670,575,134,232,383,399
7.847,617,641,688,574,134,225,374,392
7.862,616,630,694,572,141,228,369,386
7.884,607,625,689,572,141,223,370,380
7.907,600,622,684,574,137,217,368,366
7.921,582,620,671,575,125,221,357,362
7.944,555,618,651,575,122,226,363,371
7.967,523,620,637,573,130,234,372,380
7.981,496,648,629,567,146,265,390,396
8.004,469,698,624,559,171,287,413,419
8.029,465,739,621,556,187,314,433,439
8.041,481,769,624,555,197,328,446,446
8.064,519,788,634,558,189,323,448,449
8.087,563,779,653,563,177,301,439,444
8.101,604,742,675,572,162,287,423,427
8.126,631,706,701,576,149,258,409,408
8.148,647,677,723,580,144,234,392,393
8.161,646,654,730,579,147,220,375,374
8.184,640,639,723,581,146,211,365,364
8.207,631,630,709,580,140,197,352,361
8.221,613,625,686,578,130,190,339,352
8.244,587,621,661,575,115,196,330,355
8.274,556,615,643,573,115,207,342,367
8.29,522,626,632,565,122,236,364,390
8.306,491,656,626,557,140,257,383,401
8.334,484,702,622,552,161,285,400,418
8.348,507,737,619,549,183,297,416,432
8.365,549,764,624,550,185,297,417,434
8.386,595,770,638,554,182,282,413,421
8.408,628,754,657,562,167,268,402,419
8.426,650,716,676,569,169,240,395,408
8.446,655,684,697,574,161,217,376,383
8.468,649,660,711,575,156,204,359,367
8.486,630,643,712,570,166,193,337,353
8.509,612,632,703,565,171,178,326,337
8.532,586,627,689,563,150,175,314,328
8.547,555,623,671,562,131,179,310,330
8.57,521,617,652,561,132,189,316,332
8.589,488,614,638,562,119,202,328,343
8.606,464,632,630,560,122,230,351,364
8.626,462,676,624,555,146,260,382,389
8.648,500,717,621,551,162,282,409,410
8.666,539,749,619,550,179,299,419,428
8.686,586,771,621,552,180,301,426,436
8.708,625,768,630,558,181,294,418,429
8.727,651,735,643,564,170,272,400,414
8.751,650,700,657,568,172,254,378,396
8.777,648,672,673,571,164,227,366,374
8.788,638,651,687,570,168,214,351,359
8.809,625,637,690,564,162,196,338,352
8.832,607,629,686,559,153,182,327,344
8.851,582,622,677,556,133,171,319,336
8.866,552,614,665,554,120,178,313,341
8.889,519,613,649,554,116,194,318,348
8.905,491,629,637,556,129,230,343,363
8.926,488,660,629,556,142,256,367,382
8.948,513,698,623,554,175,279,386,401
8.965,548,730,620,553,185,285,404,406
8.986,594,749,620,553,190,282,411,404
9.008,628,747,625,556,181,264,403,399
9.025,647,727,634,562,176,245,393,391
9.046,650,696,646,565,154,221,382,381
9.069,648,667,660,566,150,209,366,370
9.085,635,644,670,566,145,194,347,357
9.11,623,628,677,560,143,180,328,339
9.129,605,617,677,554,140,172,314,325
9.147,580,611,671,550,131,160,298,313
9.167,553,604,662,549,115,155,290,319
9.19,524,596,651,549,115,171,301,330
9.205,511,596,638,550,132,192,321,342
9.226,530,613,629,549,150,218,331,355
9.249,569,638,623,548,161,239,342,369
9.265,605,674,620,548,174,252,358,372
9.286,635,699,619,546,171,252,357,370
9.308,652,713,621,545,158,238,347,372
9.331,650,704,629,547,144,223,339,363
9.346,638,684,639,548,141,203,333,349
9.368,618,650,650,547,133,186,319,342
9.393,602,624,659,544,136,170,305,334
9.406,579,604,664,538,139,164,293,315
9.428,552,592,665,534,140,153,286,309
9.451,525,583,663,530,126,143,278,305
9.466,507,578,657,528,116,142,269,297
9.489,500,574,650,531,109,147,271,296
9.521,509,573,643,536,114,159,278,311
9.528,518,587,634,540,116,194,305,341
9.559,530,628,626,547,138,233,341,364
9.578,557,676,620,550,159,262,376,389
9.594,579,713,617,550,173,278,391,405
9.623,593,740,615,553,164,288,413,414
9.631,613,747,617,554,166,273,407,406
9.646,626,725,623,556,163,251,389,397
9.669,627,688,631,553,151,227,364,384
9.691,610,656,640,550,149,200,346,359
9.708,596,629,648,541,157,177,314,337
9.729,574,609,652,532,160,163,289,312
9.751,549,595,652,521,151,147,276,292
9.774,523,588,648,518,143,134,263,271
9.788,507,585,646,519,122,139,264,280
9.811,486,578,642,523,110,146,276,295
9.83,484,574,638,531,104,167,304,325
9.851,530,590,632,538,115,197,327,350
9.871,568,619,628,544,133,220,345,371
9.91,602,655,622,544,161,237,367,390
9.915,634,690,620,545,171,245,375,392
9.931,654,716,621,542,165,240,366,377
9.946,639,716,624,540,160,224,352,366
9.97,628,700,629,537,147,208,343,357
9.991,621,671,636,540,133,191,324,336
10.006,606,641,642,538,142,179,305,322
10.028,591,617,646,536,151,170,296,315
10.051,570,602,648,529,152,160,283,304
10.073,549,592,645,525,148,147,269,290
10.088,530,586,640,520,142,138,259,293
10.111,537,578,640,519,119,139,259,293
10.126,553,574,637,519,109,148,268,303
10.148,584,575,634,525,112,180,293,326
10.171,612,593,633,530,129,206,321,350
10.186,633,628,630,533,153,229,346,361
10.208,639,671,623,538,167,246,365,372
10.231,639,701,620,542,166,248,373,379
10.253,630,719,618,542,160,239,364,372
10.268,622,719,621,541,162,225,350,361
10.291,618,696,626,543,139,211,336,356
10.313,616,665,634,541,136,186,316,345
10.328,603,641,641,538,150,178,301,333
10.351,589,620,648,535,157,164,291,319
10.373,569,605,649,528,143,160,281,310
10.388,542,598,646,522,141,151,272,297
10.411,511,591,646,523,132,165,275,304
10.433,490,587,645,526,112,169,286,313
10.448,467,583,641,530,113,188,309,338
10.471,451,583,639,534,134,213,338,366
10.493,443,595,636,540,153,252,376,397
10.508,443,638,629,542,167,281,407,421
10.531,464,684,623,542,189,307,429,439
10.553,494,721,619,543,189,315,446,445
10.568,531,745,616,547,178,312,451,439
10.591,574,749,617,547,160,291,434,426
10.613,606,723,621,549,151,266,416,406
10.629,624,688,626,551,142,241,394,383
10.652,632,660,633,551,150,217,364,357
10.673,632,639,645,551,151,203,342,342
10.689,612,626,652,547,157,192,328,325
10.711,593,617,655,545,156,179,311,312
10.733,570,611,659,542,137,175,305,307
10.749,541,601,657,541,126,181,310,321
10.772,508,594,649,540,139,202,327,332
10.793,486,595,642,541,154,227,346,349
10.811,480,617,634,540,168,262,376,375
10.831,488,663,626,541,186,286,404,397
10.853,521,703,621,542,191,299,422,401
10.868,561,734,618,542,181,304,423,405
10.891,600,748,619,543,161,296,424,402
10.913,623,740,625,547,145,276,412,389
10.928,637,707,631,551,139,253,392,368
10.953,708,731,670,627,169,290,389,372
10.973,954,933,884,826,337,445,430,407
10.988,1184,1135,1110,1036,445,571,492,455
11.011,1379,1324,1304,1240,552,728,588,547
11.034,1554,1492,1471,1419,636,861,678,620
11.048,1647,1577,1570,1506,665,917,723,657
11.071,1546,1477,1488,1439,609,861,694,629
11.097,1373,1319,1323,1298,542,789,639,586
11.111,1173,1117,1122,1100,449,660,549,493
11.132,935,885,888,859,324,499,433,401
11.155,684,651,642,615,249,359,323,301
11.17,601,613,568,540,223,330,300,279
11.191,754,712,695,645,234,367,337,306
11.207,1052,1006,1012,934,264,459,422,392
11.228,1205,1175,1182,1133,299,523,479,446
11.251,1304,1266,1283,1245,315,557,511,471
11.269,1345,1277,1317,1284,318,558,513,477
11.289,1265,1218,1250,1216,300,517,475,445
11.311,1093,1040,1055,1029,263,417,380,357
11.326,1002,917,937,857,218,304,282,262
11.358,960,866,882,754,190,241,209,210
11.371,957,875,886,726,182,242,199,193
11.386,989,899,921,780,182,268,220,213
11.408,922,841,872,759,163,266,223,216
11.439,815,735,769,680,154,255,217,209
11.446,703,633,667,608,147,247,222,212
11.469,614,555,570,537,141,233,216,207
11.491,530,497,492,463,131,208,204,193
11.506,481,468,448,418,129,192,191,185
11.528,437,438,411,379,112,176,174,171
11.555,385,406,358,318,104,139,144,145
11.567,344,375,308,258,101,119,128,136
11.588,324,350,276,215,111,107,126,129
11.615,320,341,266,193,110,102,127,130
11.626,328,350,277,204,113,112,137,134
11.649,329,352,278,205,108,117,139,133
11.672,329,347,276,206,104,121,143,129
11.686,330,351,277,205,92,116,129,121
11.708,343,351,282,203,85,109,122,115
11.735,369,349,289,207,85,97,115,119
11.756,398,364,321,229,87,102,124,130
11.769,417,387,352,263,97,122,136,145
11.791,428,410,376,309,101,141,154,153
11.817,440,449,404,353,114,163,170,161
11.832,443,482,421,379,120,177,174,158
11.851,432,483,411,382,118,181,167,147
11.874,426,482,402,375,118,170,154,133
11.899,435,465,391,349,119,156,144,125
11.911,422,425,362,311,112,138,124,111
11.934,398,383,337,279,108,118,111,110
11.949,394,374,328,273,109,114,111,109
11.971,383,364,322,268,115,119,119,111
11.994,360,358,306,254,110,117,112,110
12.014,339,351,289,237,104,112,107,110
12.032,321,339,267,213,100,108,102,102
12.054,306,329,248,186,99,99,99,108
12.071,290,331,233,177,91,99,102,112
12.095,273,334,231,185,91,108,116,127
12.115,339,377,350,297,105,146,145,147
12.128,679,605,645,522,125,203,197,187
12.152,883,734,826,688,138,242,226,216
12.174,978,768,903,763,143,257,234,222
12.197,985,758,906,771,144,256,231,219
12.227,979,747,874,736,136,241,220,212
12.249,836,621,727,618,126,208,197,201
12.264,698,513,584,473,116,182,188,182
12.287,619,491,515,384,118,171,188,186
12.301,643,522,541,395,117,182,194,188
12.318,633,522,551,413,117,181,193,192
12.367,573,490,518,407,109,171,183,175
12.37,485,453,456,373,103,155,170,168
12.377,426,434,410,341,95,148,160,161
12.404,398,430,389,329,94,145,169,172
12.414,417,439,390,330,108,154,185,176
12.437,441,438,394,329,108,165,193,186
12.459,444,432,400,333,119,175,194,193
12.477,441,431,405,338,118,172,197,195
12.497,438,429,399,328,123,165,188,184
12.52,401,411,374,301,110,150,172,166
12.534,354,394,336,265,111,133,150,148
12.557,327,378,295,221,103,111,132,125
12.579,297,349,249,173,100,100,117,105
12.593,601,544,574,436,111,135,150,142
12.617,927,872,880,721,188,293,250,238
12.639,1164,1141,1107,983,284,437,348,326
12.653,1337,1313,1262,1146,356,528,415,387
12.677,1430,1424,1356,1245,410,587,458,430
12.699,1378,1414,1302,1231,431,607,470,444
12.713,1221,1274,1159,1125,426,564,446,420
12.737,1036,1081,987,939,377,475,400,382
12.759,846,921,830,769,311,385,363,346
12.773,728,803,722,640,242,300,340,314
12.797,671,751,671,571,194,254,331,300
12.819,647,735,646,544,141,225,322,292
12.833,630,718,633,533,130,201,307,275
12.857,606,684,622,521,133,178,280,257
12.889,593,648,619,507,142,154,244,235
12.901,585,621,621,492,152,132,217,209
12.917,576,601,627,478,158,121,197,194
12.939,574,586,632,468,148,118,182,181
12.953,606,573,642,469,138,115,187,180
12.977,622,565,644,481,122,121,193,180
12.999,642,582,642,500,129,166,201,190
13.014,744,718,716,656,193,270,246,240
13.037,1008,988,908,847,252,371,304,287
13.063,1169,1178,1074,1015,314,462,368,353
13.076,1308,1325,1219,1154,361,540,428,402
13.097,1406,1407,1320,1253,380,576,463,433
13.119,1405,1384,1328,1236,370,568,464,432
13.142,1241,1217,1212,1135,344,520,437,410
13.157,1071,1034,1053,989,297,455,387,354
13.18,875,837,860,817,242,370,327,311
13.202,694,673,681,649,211,313,283,271
13.218,601,586,576,555,181,275,260,238
13.24,578,573,544,533,180,280,260,238
13.262,582,577,539,533,170,279,262,241
13.279,578,576,532,525,163,270,251,227
13.299,544,558,509,503,151,253,239,212
13.322,493,524,462,455,137,228,215,198
13.337,458,474,415,399,108,197,192,178
13.359,441,439,382,352,102,166,169,163
13.381,423,403,358,320,104,152,157,149
13.399,414,382,342,298,97,141,149,155
13.419,408,380,342,285,104,140,152,153
13.441,400,382,337,281,103,136,156,150
13.458,381,376,331,273,108,143,159,143
13.478,375,371,327,265,106,144,163,145
13.501,373,369,323,257,110,138,158,130
13.518,372,360,314,256,108,128,150,120
13.539,358,345,301,240,104,116,132,104
13.564,345,342,284,232,114,145,164,130
13.578,998,985,986,954,209,382,383,318
13.601,1312,1352,1301,1284,365,615,535,461
13.622,1500,1558,1482,1462,449,736,610,536
13.638,1623,1686,1604,1581,514,807,663,590
13.668,1693,1755,1675,1646,543,838,682,613
13.694,1451,1533,1426,1398,537,781,605,558
13.707,1207,1260,1181,1130,456,629,493,468
13.739,999,1050,985,918,381,496,425,404
13.741,827,889,818,733,299,391,373,358
13.758,716,793,707,615,242,323,359,338
13.778,667,762,658,568,190,280,356,345
13.802,647,738,637,553,164,256,359,345
13.826,630,700,625,544,146,238,350,346
13.838,620,672,620,537,138,216,341,331
13.861,616,652,628,532,130,193,322,324
13.883,611,638,641,531,138,177,304,299
13.9,605,629,651,530,143,169,290,289
13.915,592,624,656,527,143,159,283,283
13.939,571,620,660,525,130,160,275,282
13.958,542,619,659,520,125,171,287,283
13.975,513,616,653,518,125,190,305,305
13.998,488,619,648,517,130,216,326,327
14.018,477,651,640,518,141,252,356,348
14.035,478,701,632,524,157,282,381,369
14.06,499,741,626,531,170,300,402,392
14.078,536,772,622,536,167,308,416,400
14.099,572,790,616,538,161,303,423,399
14.118,602,778,614,538,156,289,419,395
14.139,627,742,620,539,167,269,410,388
14.161,640,708,631,541,160,249,396,373
14.178,639,679,645,541,165,232,382,361
14.198,635,657,662,543,171,220,366,353
14.216,627,641,678,544,167,201,349,340
14.238,616,632,688,540,139,188,333,335
14.259,604,625,688,535,123,182,327,335
14.275,582,622,681,527,103,185,324,337
14.304,553,620,672,520,106,200,337,351
14.319,520,625,659,520,119,226,353,371
14.335,497,657,643,520,141,260,383,392
14.358,475,711,633,521,171,292,410,405
14.382,477,764,626,528,187,314,425,423
14.395,498,801,622,534,186,322,437,425
14.417,526,823,620,534,183,319,440,420
14.441,560,817,616,535,176,302,427,414
14.455,599,782,619,533,162,272,397,395
14.477,623,738,628,530,151,236,375,369
14.498,635,703,633,528,146,206,346,350
14.515,642,674,639,527,149,183,322,332
14.538,633,652,649,527,147,159,307,309
14.559,615,639,653,527,140,160,303,307
14.582,589,629,656,526,133,164,305,311
14.599,558,624,661,522,131,170,308,313
14.618,523,621,661,517,116,177,310,314
14.645,493,615,657,513,109,188,318,329
14.658,473,613,652,509,113,202,334,344
14.68,480,662,641,511,138,235,354,362
14.703,506,713,632,515,154,262,382,381
14.719,539,750,625,519,168,280,394,397
14.74,587,779,622,524,176,287,407,397
14.761,621,797,618,528,181,284,404,396
14.778,640,765,619,527,164,263,395,383
14.799,647,725,626,528,154,239,371,363
14.829,648,691,639,528,151,213,353,347
14.846,636,664,653,528,167,194,327,330
14.862,628,645,666,524,170,181,311,320
14.887,618,635,674,521,166,168,298,312
14.906,604,628,677,515,158,158,289,307
14.921,580,623,673,508,147,158,287,300
14.947,550,620,665,498,114,163,292,310
14.965,523,617,657,493,106,176,310,320
14.991,496,631,648,492,126,205,332,336
15.001,478,662,639,491,143,237,356,357
15.023,468,714,631,494,160,271,388,384
15.046,464,766,625,499,178,301,414,411
15.069,458,812,621,506,171,317,440,428
15.084,454,840,620,510,167,321,449,447
15.106,451,852,624,513,164,317,458,454
15.121,458,833,637,518,164,306,457,459
15.144,462,803,657,522,164,288,458,457
15.166,472,768,684,524,177,279,454,461
15.181,484,731,713,524,170,277,457,455
15.203,488,695,744,526,164,278,454,455
15.226,483,666,769,523,153,287,457,455
15.241,492,646,792,519,130,291,465,460
15.263,494,635,798,518,125,310,471,468
15.286,501,627,793,515,136,331,489,488
15.301,518,622,775,510,161,361,516,512
15.323,547,619,747,513,193,389,546,536
15.346,554,644,712,513,221,413,561,551
15.361,551,697,682,512,233,419,574,565
15.383,540,749,659,516,229,416,572,564
15.407,518,795,642,518,210,399,565,553
15.421,479,836,632,514,188,370,542,538
15.444,452,853,631,514,168,344,526,525
15.469,435,837,641,515,165,318,508,508
15.483,423,812,658,515,164,297,496,496
15.506,419,782,684,516,169,280,484,488
15.527,437,748,724,518,165,272,479,480
15.544,527,709,757,529,178,269,466,470
15.575,632,711,771,561,218,265,440,453
15.588,749,714,771,599,278,283,408,431
15.603,872,714,761,625,339,322,379,407
15.624,945,719,732,640,385,347,344,381
15.646,952,701,691,632,405,360,312,351
15.661,917,637,647,601,383,354,296,334
15.688,853,572,616,566,343,328,304,338
15.716,751,513,583,535,284,271,300,340
15.722,658,450,554,511,211,218,306,353
15.746,598,435,550,509,146,168,318,371
15.766,566,456,564,512,136,174,340,389
15.782,608,494,577,512,157,186,347,404
15.804,641,545,591,517,202,215,378,426
15.826,677,586,609,522,237,245,409,442
15.841,666,616,618,523,250,263,432,452
15.863,687,617,622,538,245,266,446,462
15.886,671,659,622,582,244,280,450,460
15.901,758,778,718,681,279,362,440,447
15.924,1049,1063,994,937,364,475,463,451
15.946,1279,1267,1193,1158,458,606,525,482
15.97,1464,1454,1379,1348,531,698,550,489
15.987,1570,1553,1498,1450,552,736,550,474
16.009,1551,1522,1487,1438,533,712,533,453
16.03,1358,1337,1311,1277,464,630,474,410
16.045,1141,1133,1115,1075,360,494,360,339
16.066,914,879,882,825,240,347,272,283
16.089,749,646,686,594,163,246,235,280
16.104,760,607,679,557,109,203,242,292
16.126,846,748,836,715,244,420,415,439
16.15,1050,877,1012,868,269,474,434,446
16.165,1056,886,1027,883,278,481,449,470
16.185,1093,918,1061,907,294,488,455,462
16.201,1110,1007,1127,1025,396,683,684,685
16.229,1139,1002,1111,1030,379,681,710,710
16.24,1068,979,1058,1005,416,733,795,789
16.291,1099,1024,1091,1050,445,783,843,825
16.293,1042,1013,1060,1048,455,810,867,849
16.314,965,890,934,901,375,663,705,684
16.338,848,753,802,772,333,568,598,576
16.386,707,632,657,625,271,462,474,462
16.388,765,547,528,506,289,494,518,484
16.391,1056,1022,930,844,476,718,684,641
16.404,1302,1321,1275,1203,644,980,870,791
16.419,1468,1535,1480,1425,720,1109,1002,904
16.441,1558,1671,1613,1557,760,1179,1074,981
16.464,1535,1714,1682,1625,760,1160,1039,961
16.486,1360,1507,1520,1497,666,1029,935,870
16.502,1125,1281,1266,1248,521,784,776,752
16.524,949,1054,1050,1017,428,602,622,639
16.546,832,857,871,827,375,472,521,537
16.561,724,791,765,691,332,412,493,503
16.585,655,725,700,614,295,378,479,482
16.608,631,694,681,580,261,370,482,482
16.621,539,673,663,551,226,359,490,485
16.643,464,677,642,538,209,349,499,499
16.666,447,711,629,531,205,353,516,517
16.681,434,755,623,529,214,364,532,527
16.703,435,783,620,528,210,368,542,534
16.727,443,797,615,528,200,358,540,531
16.741,466,789,613,526,169,337,527,517
16.765,500,756,616,526,156,311,512,500
16.786,545,713,622,527,136,283,494,485
16.801,570,685,629,528,152,260,478,475
16.824,571,663,639,526,164,249,463,464
16.846,560,645,661,522,170,247,458,462
16.861,538,633,683,515,165,259,454,460
16.884,507,625,711,510,159,265,453,459
16.906,497,620,721,507,148,270,453,450
16.921,516,618,735,507,135,277,459,455
16.944,545,617,734,509,127,299,470,466
16.967,578,617,721,510,138,331,492,487
16.983,596,616,695,511,162,361,515,512
17.007,594,616,680,514,199,397,547,542
17.027,582,649,661,518,213,416,565,555
17.043,554,702,642,522,221,422,569,558
17.063,515,754,630,526,225,409,565,557
17.089,480,799,623,526,212,390,556,544
17.103,454,837,620,524,175,366,537,526
17.124,442,848,621,522,170,344,522,514
17.147,441,824,629,519,169,321,511,503
17.169,452,792,645,518,160,301,498,486
17.192,474,760,667,520,161,290,486,477
17.207,513,724,696,520,156,275,475,469
17.233,552,686,714,520,142,267,462,461
17.252,588,663,727,520,127,265,453,452
17.268,614,645,734,522,119,269,449,451
17.289,621,631,730,517,117,286,455,464
17.314,614,623,710,514,151,311,467,478
17.332,589,632,695,510,173,328,485,494
17.352,556,672,675,507,197,347,506,510
17.372,519,729,652,505,209,362,521,521
17.386,498,776,636,509,210,363,525,523
17.413,505,804,626,515,190,347,525,516
17.434,550,813,619,527,185,324,505,502
17.447,591,791,620,541,189,294,471,485
17.469,677,746,640,549,206,260,425,451
17.493,754,696,670,558,261,239,375,401
17.506,789,648,690,565,297,238,307,355
17.529,788,598,700,563,305,231,257,310
17.553,786,560,696,543,291,214,228,280
17.566,719,535,670,528,273,211,244,293
17.589,640,542,633,513,241,220,291,339
17.617,574,567,612,498,209,224,342,387
17.629,533,598,604,493,198,260,407,440
17.653,532,655,595,539,222,297,439,470
17.684,682,767,665,618,270,371,443,467
17.695,902,999,855,814,346,461,456,455
17.715,1135,1194,1052,1003,422,551,472,442
17.771,1311,1344,1207,1151,464,602,453,408
17.774,1404,1409,1294,1211,473,622,424,366
17.777,1342,1346,1247,1168,455,583,402,342
17.792,1216,1159,1113,1026,384,501,347,310
17.806,995,926,896,818,290,380,265,264
17.829,780,703,693,605,221,274,209,226
17.852,699,612,635,568,202,258,224,234
17.874,814,732,771,710,211,320,275,257
17.89,866,796,842,795,222,359,292,256
17.912,894,814,871,830,221,362,295,250
17.935,854,775,827,809,205,349,284,240
17.949,735,675,707,697,171,300,254,217
17.964,592,545,556,545,127,227,189,181
17.987,476,458,422,416,110,167,156,177
18.01,435,431,404,380,103,164,162,196
18.023,816,744,738,641,149,261,250,271
18.047,1074,1076,1079,1007,223,394,345,342
18.069,1382,1323,1316,1242,383,575,482,455
18.084,1529,1496,1452,1370,503,683,575,535
18.108,1597,1596,1523,1437,570,752,644,587
18.129,1481,1540,1437,1376,600,767,669,605
18.144,1334,1382,1241,1164,598,728,667,604
18.167,1025,1173,1022,933,527,605,615,561
18.191,807,981,864,762,423,490,564,519
18.204,683,846,757,644,334,392,518,490
18.227,614,758,708,583,259,313,479,466
18.253,591,685,682,554,208,278,451,453
18.271,594,664,665,536,159,263,429,438
18.292,606,640,651,523,143,265,427,444
18.316,606,626,651,514,145,281,440,454
18.329,603,621,650,507,151,298,459,472
18.347,586,627,649,500,181,323,478,489
18.369,554,665,644,499,205,348,498,506
18.392,516,724,638,499,212,361,506,508
18.407,488,772,630,500,207,348,501,505
18.429,466,814,623,502,195,336,487,491
18.453,463,831,619,507,170,310,475,475
18.469,481,819,612,507,161,280,456,450
18.49,520,779,606,507,157,248,430,427
18.516,564,738,603,508,166,229,404,407
18.53,602,696,597,510,173,208,383,390
18.564,626,670,598,511,169,189,359,372
18.573,700,647,634,526,186,184,331,354
18.598,752,646,664,543,223,212,306,331
18.61,773,629,672,542,252,233,273,296
18.632,783,616,670,545,292,272,258,272
18.648,816,619,659,547,336,312,241,256
18.676,794,620,618,543,342,338,232,249
18.693,753,607,582,536,331,344,237,246
18.708,725,617,568,545,315,348,250,254
18.73,690,604,559,534,284,330,246,251
18.753,626,587,551,526,247,305,246,250
18.768,586,617,561,520,227,286,251,252
18.79,604,662,587,522,213,276,244,249
18.813,673,712,620,533,203,266,239,250
18.827,744,763,658,555,197,265,241,249
18.85,774,772,666,555,183,255,236,237
18.871,763,725,641,531,173,236,221,218
18.888,708,643,578,480,159,209,205,202
18.91,596,528,484,405,138,179,183,181
18.931,465,411,373,317,120,145,155,159
18.953,376,336,298,254,107,127,137,153
18.976,310,292,247,206,98,121,135,156
18.993,283,274,223,187,96,109,147,166
19.022,411,321,266,193,109,122,174,181
19.036,479,347,299,209,113,128,194,211
19.051,502,337,296,204,120,131,205,224
19.074,507,320,281,189,126,129,208,230
19.106,511,330,289,188,124,134,205,229
19.112,446,319,281,208,118,131,196,227
19.136,420,327,287,231,120,130,187,209
19.157,427,355,308,255,125,137,179,194
19.171,446,376,326,273,121,143,173,188
19.193,456,375,333,281,122,148,171,189
19.216,440,355,317,269,127,144,160,177
19.232,414,332,293,251,126,143,148,167
19.254,379,319,284,239,114,133,136,162
19.276,377,322,289,244,109,123,128,159
19.291,384,342,295,249,107,112,119,151
19.314,393,362,312,260,94,112,124,159
19.336,392,373,324,269,90,118,136,174
19.351,402,382,330,274,95,128,155,185
19.374,393,398,332,277,102,139,170,193
19.398,387,402,335,279,103,144,182,205
19.413,382,401,325,273,105,149,185,200
19.434,382,400,312,264,105,146,188,199
19.456,374,395,297,247,103,140,183,193
19.471,348,368,274,218,95,125,171,184
19.495,325,334,252,194,95,117,157,169
19.518,304,297,231,175,91,100,142,171
19.531,301,263,230,163,104,100,124,157
19.554,618,515,561,469,117,156,166,188
19.576,917,905,813,712,238,346,293,292
19.599,1117,1126,985,900,350,461,383,366
19.614,1234,1269,1093,1024,408,529,436,415
19.636,1294,1352,1156,1100,445,571,472,455
19.651,1209,1323,1074,1050,466,580,487,472
19.674,1028,1131,937,936,435,508,460,457
19.696,830,956,796,788,364,426,432,442
19.711,667,813,689,654,307,362,420,434
19.734,560,746,631,553,249,306,418,434
19.758,509,730,616,509,203,286,424,439
19.779,506,740,616,495,164,273,419,432
19.794,521,747,617,491,132,258,409,421
19.816,542,743,614,491,121,239,403,414
19.838,575,716,606,494,126,230,388,401
19.854,601,688,598,495,129,209,363,383
19.876,616,664,591,498,140,196,349,372
19.899,625,645,585,498,153,180,333,363
19.914,626,632,583,497,154,173,313,357
19.936,609,625,585,495,147,157,312,350
19.959,587,621,587,493,143,161,314,354
19.974,560,619,590,491,135,169,317,358
19.996,526,618,592,487,127,191,327,373
20.019,497,612,595,484,144,228,352,393
20.034,473,624,597,482,174,262,375,418
20.056,465,662,603,479,188,287,399,439
20.079,476,708,609,481,202,301,413,449
20.094,526,740,616,481,204,291,411,443
20.116,573,767,620,481,193,266,389,422
20.14,613,773,623,482,164,233,363,398
20.157,641,751,619,484,147,201,337,370
20.177,658,711,612,485,136,175,313,344
20.199,641,678,604,487,142,167,300,323
20.215,618,652,597,491,135,158,295,312
20.236,597,631,591,489,139,153,283,304
20.259,570,617,591,485,143,140,271,291
20.274,537,611,593,479,128,130,258,290
20.296,513,605,594,474,117,130,260,298
20.319,499,599,595,469,115,147,276,313
20.334,499,595,597,466,130,183,302,339
20.357,518,600,599,466,145,215,326,361
20.379,549,620,603,465,161,238,346,384
20.394,590,661,610,468,164,260,363,392
20.416,618,702,619,471,166,263,365,391
20.439,634,731,624,476,150,248,362,385
20.454,641,744,627,478,136,227,345,371
20.486,643,737,624,479,121,206,335,347
20.499,633,709,617,480,124,183,313,331
20.513,617,674,606,481,124,164,293,318
20.536,603,645,599,477,133,152,267,291
20.558,585,624,596,476,145,141,251,279
20.573,559,608,594,474,149,130,231,266
20.596,533,598,594,469,146,113,219,259
20.619,544,591,598,456,143,103,209,247
20.634,573,585,599,444,131,101,200,240
20.656,607,580,599,429,111,103,204,242
20.679,640,577,601,422,106,113,217,256
20.71,668,583,602,419,103,136,232,273
20.716,670,610,603,426,110,156,257,303
20.739,655,645,606,433,121,166,273,319
20.761,639,685,610,445,127,179,281,323
20.777,630,715,616,448,124,180,279,321
20.799,619,729,621,453,124,165,276,315
20.822,614,722,620,454,119,157,267,302
20.836,603,702,615,462,112,156,272,303
20.859,590,671,606,467,114,149,273,306
20.882,573,645,599,480,126,149,270,302
20.896,555,626,596,482,125,150,273,296
20.918,525,612,594,487,129,147,267,288
20.942,500,603,593,482,126,141,253,275
20.956,489,595,597,480,118,136,244,270
20.987,484,589,594,467,112,132,241,272
21.002,495,581,586,459,112,141,235,272
21.017,524,573,585,451,114,150,249,286
21.039,573,579,588,451,128,169,271,304
21.063,606,607,594,450,136,188,292,321
21.077,631,646,604,453,145,204,308,338
21.099,647,687,617,459,144,210,322,351
21.122,650,718,625,466,138,206,318,349
21.141,638,731,629,468,132,192,308,337
21.159,629,719,626,469,128,178,296,323
21.182,616,693,618,473,115,160,282,306
21.196,600,662,605,472,119,145,267,294
21.218,585,636,594,472,128,139,257,287
21.242,562,616,586,473,139,132,249,284
21.256,533,602,584,474,137,122,234,276
21.279,513,593,583,468,138,121,227,272
21.302,505,584,586,461,132,122,221,271
21.317,511,579,591,458,123,131,227,281
21.339,531,577,592,451,117,163,249,296
21.362,558,576,592,445,126,180,271,317
21.376,589,582,594,445,125,193,292,335
21.399,616,605,599,449,138,214,322,350
21.424,630,640,602,452,144,222,331,355
21.436,636,678,608,457,139,218,325,354
21.46,639,707,616,463,131,213,323,351
21.483,635,722,622,468,130,204,317,346
21.496,628,717,624,470,119,187,296,338
21.533,623,696,622,473,119,175,290,332
21.542,611,665,614,476,118,161,283,318
21.565,597,640,603,476,132,149,270,307
21.579,580,622,595,477,132,140,261,298
21.602,555,607,590,477,134,130,250,287
21.616,530,599,588,472,130,121,244,278
21.639,509,596,588,465,123,115,241,283
21.662,491,591,586,460,104,126,242,281
21.684,489,583,584,453,103,142,250,288
21.699,505,581,578,447,101,159,264,301
21.722,520,579,575,447,99,185,279,319
21.746,554,589,578,448,117,203,302,336
21.759,595,613,588,450,130,214,321,351
21.782,619,658,597,454,138,223,334,357
21.804,633,692,609,461,144,221,342,356
21.819,644,716,620,459,139,208,335,349
21.842,642,722,623,462,129,197,322,339
21.865,632,712,621,468,121,187,310,330
21.879,617,679,614,471,123,173,292,317
21.902,602,649,605,472,133,163,273,310
21.925,595,621,601,484,164,183,264,298
21.94,634,598,619,489,197,220,245,273
21.963,662,580,644,500,221,251,226,256
21.984,682,568,662,519,231,276,213,241
22.0,696,559,669,536,232,294,206,228
22.022,707,557,662,538,220,289,198,222
22.044,688,554,629,545,193,265,208,234
22.059,678,542,592,536,166,236,222,238
22.082,677,523,563,517,146,206,228,248
22.104,673,499,543,498,131,181,228,251
22.131,659,473,536,486,115,163,228,250
22.142,636,452,542,473,106,142,220,249
22.164,618,450,548,468,104,121,201,246
22.178,606,476,562,477,115,126,198,246
22.202,610,515,579,481,137,145,202,256
22.225,626,553,593,484,172,160,217,279
22.238,615,583,597,482,195,181,241,291
22.262,583,604,596,478,208,194,263,305
22.285,548,607,589,465,203,189,270,311
22.3,507,601,580,456,192,170,273,310
22.322,464,591,572,448,167,165,274,306
22.345,462,586,572,446,143,159,271,310
22.359,488,582,576,444,132,169,279,316
22.382,526,585,580,440,169,185,301,331
22.455,564,600,585,444,171,214,316,347
22.462,590,623,589,446,178,226,328,357
22.464,610,649,592,447,182,230,337,366
22.471,621,681,597,449,174,222,342,365
22.487,622,697,603,452,132,213,332,361
22.502,620,698,608,454,123,189,321,353
22.524,620,690,614,456,120,176,312,344
22.54,614,672,614,459,114,163,299,336
22.563,600,646,608,464,124,162,281,325
22.586,583,625,602,467,131,152,268,316
22.607,563,610,598,468,132,149,263,305
22.622,536,600,591,468,128,133,256,303
22.645,514,592,589,466,128,134,248,296
22.667,530,584,597,463,115,135,248,303
22.682,564,579,597,457,120,134,248,302
22.721,597,576,595,450,117,141,257,309
22.727,629,581,597,440,129,161,265,310
22.742,657,598,598,434,139,176,287,321
22.764,656,625,593,429,147,179,299,328
22.788,642,659,594,426,146,189,310,340
22.802,630,691,598,430,143,187,311,343
22.825,622,708,602,436,127,178,303,343
22.849,610,707,606,442,121,166,286,334
22.863,596,695,609,450,119,153,271,317
22.887,579,670,607,455,118,138,255,303
22.908,560,642,603,457,127,139,246,295
22.922,534,620,595,456,133,135,238,285
22.947,509,607,590,459,134,130,243,289
22.967,493,596,586,462,132,135,248,305
22.981,485,588,587,467,133,144,254,309
23.006,481,581,587,469,122,142,258,313
23.029,499,575,587,471,120,148,265,320
23.041,528,568,584,466,118,164,273,323
23.064,561,570,582,462,126,181,295,328
23.087,591,583,581,456,132,198,310,342
23.101,616,606,585,453,144,216,327,358
23.124,627,647,592,455,150,224,344,371
23.155,631,680,601,459,145,220,350,380
23.165,627,700,609,463,137,215,343,376
23.184,621,707,615,465,127,197,336,370
23.207,617,699,618,468,121,184,324,357
23.221,607,672,615,468,116,169,311,340
23.244,593,645,608,466,117,158,297,322
23.267,576,625,602,466,125,145,280,315
23.281,556,610,594,464,128,143,272,303
23.304,529,599,586,462,127,130,259,302
23.327,507,589,583,464,118,126,252,302
23.345,493,583,582,460,113,128,246,301
23.365,472,581,578,454,108,139,262,315
23.387,453,587,575,456,118,168,286,337
23.401,440,591,571,458,133,208,325,359
23.424,429,611,571,460,156,254,368,400
23.447,418,646,574,469,185,292,410,437
23.461,423,692,582,478,198,323,447,459
23.484,431,730,591,483,194,340,480,483
23.507,437,776,605,489,184,344,496,503
23.536,441,803,612,494,174,339,505,503
23.556,446,806,618,496,162,327,507,502
23.566,445,787,620,497,154,313,506,505
23.589,444,763,620,499,170,301,496,495
23.611,446,727,618,498,180,290,492,484
23.626,450,696,618,499,180,275,480,482
23.65,455,669,621,502,173,275,474,475
23.673,468,651,621,503,160,271,462,467
23.686,481,638,624,504,134,270,453,461
23.71,505,628,628,505,114,282,451,466
23.726,531,621,632,504,115,301,464,473
23.746,557,619,631,502,131,330,490,497
23.769,575,618,632,498,161,361,520,520
23.785,582,624,631,494,189,392,549,543
23.806,573,641,630,488,217,407,572,557
23.829,554,681,628,484,223,416,579,565
23.845,523,726,629,480,227,408,573,560
23.874,487,774,630,479,210,392,562,547
23.896,458,810,629,479,191,371,548,537
23.908,436,833,625,481,170,350,530,524
23.933,423,833,623,483,176,327,518,509
23.95,425,813,619,487,162,311,504,498
23.965,430,782,617,491,173,291,488,489
23.986,440,751,617,496,176,276,477,474
24.01,459,715,611,498,177,269,467,465
24.025,489,681,611,500,150,261,453,453
24.047,521,658,614,501,137,258,448,451
24.07,555,641,616,501,128,271,451,454
24.085,590,629,616,501,124,287,459,467
24.106,605,622,620,500,119,303,462,476
24.129,604,619,616,497,152,329,483,496
24.153,586,642,613,491,182,353,507,510
24.167,559,681,610,484,205,367,522,519
24.189,518,736,611,481,210,371,525,524
24.205,484,783,615,479,212,365,528,518
24.226,459,810,620,481,192,345,518,503
24.249,453,810,621,483,177,312,493,483
24.265,466,791,622,486,156,279,461,464
24.291,493,750,615,485,157,242,434,441
24.318,538,706,603,484,164,212,403,420
24.325,583,678,592,482,176,189,370,407
24.346,612,655,584,480,166,167,344,389
24.369,626,630,582,475,161,152,319,362
24.385,635,613,584,467,155,144,293,341
24.412,624,600,586,458,157,143,280,334
24.429,618,588,590,446,157,154,282,328
24.445,614,578,587,435,173,171,284,330
24.467,625,590,581,431,178,182,296,340
24.489,634,613,581,435,184,196,312,349
24.511,646,651,594,445,177,207,321,356
24.529,646,683,598,445,179,201,309,344
24.55,643,710,604,441,177,188,292,328
24.571,629,720,608,438,174,176,272,311
24.586,609,713,611,430,169,158,246,287
24.609,588,687,601,419,162,137,222,261
24.635,565,663,598,423,149,126,214,253
24.648,562,638,595,428,139,117,204,246
24.669,568,621,595,432,133,108,201,242
24.691,586,608,589,434,129,109,198,243
24.706,598,600,586,431,130,99,196,246
24.729,609,592,583,427,122,94,198,247
24.752,599,590,581,433,111,96,209,255
24.766,586,586,576,433,105,110,218,265
24.789,576,583,574,435,100,127,234,281
24.811,583,581,575,441,114,158,259,301
24.826,593,592,579,449,137,183,282,326
24.849,607,597,578,446,148,200,299,346
24.872,620,625,580,449,153,206,314,361
24.887,622,652,584,451,158,206,319,368
24.909,619,685,589,453,143,200,327,369
24.932,616,696,597,451,125,192,323,364
24.947,615,706,606,456,115,189,325,361
24.969,615,693,613,456,120,186,328,361
24.992,615,677,615,467,127,193,347,370
25.007,615,651,609,476,145,191,347,375
25.029,615,637,596,487,159,203,356,382
25.052,615,627,584,492,169,205,361,386
25.067,615,621,573,500,170,210,367,391
25.089,615,618,567,501,163,212,362,391
25.112,615,617,565,502,148,222,365,396
25.127,615,616,569,501,143,229,386,412
25.15,601,616,570,502,132,244,410,430
25.172,588,616,573,500,133,272,445,460
25.186,565,616,576,496,158,305,484,491
25.209,533,623,582,491,193,342,522,523
25.232,497,647,589,485,213,376,550,546
25.247,471,701,603,481,220,404,571,562
25.269,444,752,613,481,223,411,577,564
25.292,427,797,621,483,204,407,573,560
25.306,418,831,624,484,178,392,564,545
25.329,413,849,624,486,164,364,545,527
25.351,412,825,620,486,167,334,527,511
25.367,418,795,618,488,174,306,511,494
25.391,438,759,608,484,187,279,492,476
25.412,511,721,601,494,185,253,467,461
25.427,565,675,616,511,190,241,441,449
25.449,674,661,649,543,213,222,415,433
25.471,754,658,669,575,236,226,379,411
25.494,828,667,677,598,293,279,350,386
25.509,872,763,711,649,372,352,340,362
25.532,1060,984,861,794,434,445,358,353
25.554,1196,1148,1017,950,473,522,382,355
25.569,1320,1279,1164,1090,493,585,408,355
25.592,1404,1375,1290,1198,480,610,418,358
25.614,1437,1376,1349,1237,442,603,414,352
25.629,1332,1250,1282,1185,383,555,384,327
25.652,1188,1110,1160,1079,328,500,350,291
25.674,1030,969,1010,951,284,438,323,264
25.69,904,858,870,841,262,396,319,253
25.712,842,837,788,778,243,376,338,277
25.734,845,866,768,750,238,369,365,300
25.749,849,879,754,723,227,369,377,316
25.764,824,852,722,674,206,345,359,309
25.786,742,775,644,589,176,302,329,291
25.809,730,724,618,570,160,289,336,301
25.824,899,839,793,739,193,343,381,354
25.847,1150,1067,1033,927,238,438,448,412
25.869,1334,1315,1274,1171,307,567,541,487
25.884,1503,1475,1434,1354,419,700,621,559
25.906,1606,1581,1516,1436,521,768,669,599
25.931,1554,1581,1471,1407,568,802,687,610
25.951,1401,1473,1340,1321,588,786,685,615
25.967,1246,1299,1145,1134,582,723,666,606
25.989,1062,1174,978,936,520,617,636,586
26.012,845,1044,840,779,425,528,593,560
26.027,690,932,742,644,345,430,552,531
26.049,584,858,683,555,274,354,519,504
26.071,520,799,651,506,221,305,481,480
26.086,515,746,628,488,196,268,455,456
26.109,534,698,608,482,173,241,431,438
26.132,566,654,590,479,149,221,412,422
26.147,599,635,575,478,136,207,388,405
26.169,613,624,561,479,121,203,366,387
26.191,604,618,557,477,110,203,357,375
26.207,582,616,557,475,115,217,363,373
26.229,547,615,559,470,131,240,364,378
26.252,504,618,561,465,158,264,391,387
26.267,475,635,565,458,173,284,414,394
26.289,464,674,572,456,188,301,423,402
26.312,480,715,583,454,191,304,421,403
26.327,514,743,595,455,181,292,416,392
26.349,555,758,606,460,167,275,391,369
26.371,599,755,615,465,157,247,362,350
26.389,626,727,619,470,149,221,340,321
26.409,637,690,615,475,146,197,317,291
26.431,628,658,612,481,159,177,291,266
26.447,620,633,605,473,163,150,258,247
26.469,606,615,598,462,163,143,238,227
26.491,596,601,592,449,155,136,215,217
26.506,592,590,592,436,150,133,200,218
26.529,606,583,588,422,136,138,207,227
26.551,623,577,586,418,128,156,232,244
26.566,635,583,590,419,132,168,248,266
26.589,642,595,591,412,147,178,260,275
